##TITLE= Headspace from ripe banana
##JCAMP-DX= 4.24
##DATA TYPE= GAS CHROMATOGRAPH
##ORIGIN= HP 5890 GC TABULATED file
##OWNER= Dept of Chem, UWI, Mona, JAMAICA
##DATE= 11-26-1995
##TIME= 08:51:07
##NPOINTS=   6003
##XUNITS= TIME
##YUNITS= ARBITRARY
##FIRSTX=      0.00000
##LASTX=     20.00700
##XFACTOR= 1.0
##YFACTOR= 1.0
##FIRSTY=      48925
##MAXY=     128636
##MINY=      48310
##XYDATA= (X++(Y..Y))
     0.00000        48925        48918        48909        48922        48912
     0.01700        48916        48922        48920        48913        48920
     0.03300        48921        48914        48910        48924        48928
     0.05000        48925        48928        48913        48918        48913
     0.06700        48918        48920        48920        48909        48918
     0.08300        48926        48922        48917        48914        48921
     0.10000        48918        48913        48916        48921        48902
     0.11700        48901        48905        48917        48901        48906
     0.13300        48913        48912        48901        48902        48908
     0.15000        48892        48893        48900        48893        48892
     0.16700        48888        48890        48880        48882        48888
     0.18300        48884        48882        48882        48892        48884
     0.20000        48878        48878        48880        48882        48880
     0.21700        48888        48878        48861        48876        48874
     0.23300        48869        48868        48873        48868        48869
     0.25000        48864        48870        48870        48866        48862
     0.26700        48865        48862        48864        48868        48861
     0.28300        48861        48858        48865        48861        48864
     0.30000        48866        48849        48861        48861        48862
     0.31700        48850        48857        48857        48860        48865
     0.33300        48860        48852        48858        48858        48850
     0.35000        48854        48857        48849        48853        48852
     0.36700        48848        48845        48850        48850        48852
     0.38300        48852        48852        48852        48860        48840
     0.40000        48846        48844        48849        48856        48845
     0.41700        48838        48837        48844        48841        48844
     0.43300        48848        48834        48842        48842        48842
     0.45000        48841        48840        48844        48838        48844
     0.46700        48856        48849        48846        48846        48840
     0.48300        48842        48849        48852        48852        48840
     0.50000        48849        48848        48841        48838        48846
     0.51700        48849        48852        48844        48850        48840
     0.53300        48844        48848        48854        48842        48846
     0.55000        48853        48841        48857        48852        48857
     0.56700        48845        48856        48852        48853        48848
     0.58300        48848        48850        48862        48861        48864
     0.60000        48842        48845        48849        48848        48850
     0.61700        48856        48852        48854        48857        48861
     0.63300        48850        48852        48849        48846        48845
     0.65000        48852        48852        48857        48842        48848
     0.66700        48853        48858        48852        48856        48856
     0.68300        48860        48858        48848        48856        48862
     0.70000        48853        48850        48857        48852        48857
     0.71700        48852        48850        48857        48856        48849
     0.73300        48858        48853        48852        48850        48860
     0.75000        48856        48854        48853        48856        48856
     0.76700        48854        48862        48856        48844        48845
     0.78300        48850        48857        48849        48853        48854
     0.80000        48853        48854        48861        48852        48844
     0.81700        48860        48853        48852        48850        48852
     0.83300        48857        48857        48853        48854        48853
     0.85000        48858        48852        48854        48849        48853
     0.86700        48856        48862        48857        48850        48848
     0.88300        48853        48853        48854        48861        48858
     0.90000        48865        48860        48856        48856        48852
     0.91700        48856        48857        48862        48853        48861
     0.93300        48862        48856        48864        48860        48860
     0.95000        48862        48858        48857        48860        48870
     0.96700        48864        48869        48858        48868        48868
     0.98300        48869        48860        48865        48857        48869
     1.00000        48866        48860        48858        48865        48866
     1.01700        48856        48868        48865        48869        48854
     1.03300        48854        48862        48866        48862        48869
     1.05000        48870        48861        48862        48869        48860
     1.06700        48874        48868        48862        48868        48869
     1.08300        48861        48872        48870        48881        48870
     1.10000        48872        48872        48864        48870        48870
     1.11700        48873        48884        48880        48885        48886
     1.13300        48880        48885        48882        48878        48876
     1.15000        48874        48874        48886        48884        48877
     1.16700        48882        48870        48878        48881        48870
     1.18300        48874        48861        48877        48878        48869
     1.20000        48885        48880        48874        48884        48886
     1.21700        48881        48885        48886        48894        48898
     1.23300        48894        48910        48902        48900        48913
     1.25000        48918        48910        48905        48910        48917
     1.26700        48913        48918        48917        48914        48913
     1.28300        48910        48908        48906        48912        48910
     1.30000        48918        48921        48918        48918        48926
     1.31700        48924        48929        48926        48925        48929
     1.33300        48933        48934        48946        48950        48954
     1.35000        48970        48985        49010        49030        49069
     1.36700        49126        49195        49302        49438        49634
     1.38300        49861        50157        50542        50985        51535
     1.40000        52227        53060        54127        55406        56956
     1.41700        58772        60877        63318        66015        69059
     1.43300        72317        75877        79514        83347        87256
     1.45000        91194        95071        98922       102580       106089
     1.46700       109385       112431       115236       117849       120014
     1.48300       122121       123826       125234       126440       127516
     1.50000       128159       128622       128636       128318       128239
     1.51700       128203       127772       127139       126459       125668
     1.53300       124698       123637       122586       121424       120244
     1.55000       118990       117564       116215       114813       113410
     1.56700       112020       110693       109403       108187       107077
     1.58300       106120       105305       104688       104264       104060
     1.60000       104120       104428       104948       105661       106602
     1.61700       107717       108971       110383       111883       113410
     1.63300       114980       116540       118064       119422       120885
     1.65000       122209       123341       124390       125193       125820
     1.66700       126218       126371       126660       126960       126895
     1.68300       126603       126226       125783       125197       124465
     1.70000       123705       122863       121867       120845       119781
     1.71700       118570       117308       116084       114755       113400
     1.73300       112006       110593       109186       107749       106304
     1.75000       104873       103476       102057       100660        99276
     1.76700        97918        96615        95362        94142        92966
     1.78300        91870        90777        89754        88785        87909
     1.80000        87036        86189        85408        84678        83982
     1.81700        83320        82668        82038        81443        80861
     1.83300        80286        79731        79183        78631        78122
     1.85000        77560        76944        76445        75952        75413
     1.86700        74876        74372        73888        73387        72925
     1.88300        72312        71840        71324        70843        70383
     1.90000        69920        69464        68939        68470        68024
     1.91700        67564        67115        66677        66249        65826
     1.93300        65427        65030        64638        64226        63895
     1.95000        63522        63194        62916        62602        62334
     1.96700        62080        61866        61654        61480        61309
     1.98300        61164        61025        60898        60790        60680
     2.00000        60585        60484        60384        60289        60193
     2.01700        60092        59981        59873        59745        59625
     2.03300        59503        59379        59239        59096        58939
     2.05000        58784        58633        58468        58305        58143
     2.06700        57967        57797        57623        57441        57267
     2.08300        57081        56892        56723        56544        56359
     2.10000        56184        56015        55846        55675        55506
     2.11700        55340        55179        55018        54868        54730
     2.13300        54603        54491        54408        54362        54351
     2.15000        54408        54542        54734        55023        55416
     2.16700        55943        56587        57373        58288        59315
     2.18300        60492        61768        63172        64607        66194
     2.20000        67818        69360        71056        72644        74253
     2.21700        75888        77346        78761        80217        81430
     2.23300        82480        83486        84467        85366        86156
     2.25000        86799        87247        87597        87909        88131
     2.26700        88241        88252        88199        88069        87841
     2.28300        87480        87048        86584        86065        85519
     2.30000        84986        84422        83830        83228        82567
     2.31700        81844        81110        80317        79483        78706
     2.33300        77977        77125        76388        75684        74952
     2.35000        74283        73644        73001        72281        71653
     2.36700        71051        70531        70023        69526        69030
     2.38300        68563        68168        67792        67400        67039
     2.40000        66711        66411        66075        65773        65475
     2.41700        65185        64882        64607        64282        64029
     2.43300        63747        63482        63208        62950        62688
     2.45000        62430        62193        61957        61732        61522
     2.46700        61361        61209        61105        61005        60941
     2.48300        60890        60876        60854        60856        60853
     2.50000        60890        60976        61076        61201        61320
     2.51700        61430        61540        61649        61764        61840
     2.53300        61910        61965        62014        62048        62057
     2.55000        62057        62037        61996        61920        61849
     2.56700        61752        61638        61518        61376        61222
     2.58300        61053        60868        60666        60470        60246
     2.60000        60028        59780        59541        59307        59056
     2.61700        58821        58568        58309        58051        57800
     2.63300        57541        57284        57035        56783        56539
     2.65000        56287        56056        55807        55583        55359
     2.66700        55136        54922        54706        54499        54294
     2.68300        54083        53895        53702        53504        53343
     2.70000        53172        52995        52847        52687        52541
     2.71700        52387        52249        52109        51989        51855
     2.73300        51722        51623        51509        51403        51291
     2.75000        51191        51097        51010        50918        50835
     2.76700        50746        50673        50593        50509        50455
     2.78300        50379        50318        50262        50211        50169
     2.80000        50130        50101        50090        50093        50117
     2.81700        50151        50217        50321        50457        50634
     2.83300        50835        51075        51370        51723        52085
     2.85000        52494        52932        53427        53932        54487
     2.86700        55031        55588        56155        56715        57285
     2.88300        57832        58333        58845        59301        59728
     2.90000        60148        60505        60857        61168        61442
     2.91700        61677        61888        62070        62226        62326
     2.93300        62408        62450        62454        62422        62377
     2.95000        62294        62180        62077        61922        61738
     2.96700        61552        61353        61137        60898        60664
     2.98300        60406        60148        59889        59639        59376
     3.00000        59089        58829        58539        58267        57985
     3.01700        57709        57421        57131        56864        56595
     3.03300        56311        56067        55803        55562        55326
     3.05000        55095        54860        54638        54415        54192
     3.06700        53971        53767        53571        53376        53171
     3.08300        52971        52795        52595        52431        52267
     3.10000        52119        51989        51849        51713        51598
     3.11700        51490        51379        51266        51183        51091
     3.13300        51009        50930        50855        50810        50761
     3.15000        50735        50733        50759        50806        50919
     3.16700        51077        51310        51635        52069        52601
     3.18300        53280        54124        55131        56295        57604
     3.20000        59067        60688        62436        64271        66198
     3.21700        68274        70252        72356        74413        76524
     3.23300        78374        80438        82235        83955        85695
     3.25000        87160        88595        89901        91074        92112
     3.26700        92989        93731        94359        94917        95295
     3.28300        95570        95710        95758        95729        95651
     3.30000        95383        95034        94554        94087        93497
     3.31700        92862        92170        91464        90688        89808
     3.33300        88912        88067        87216        86268        85319
     3.35000        84415        83492        82507        81463        80493
     3.36700        79507        78607        77701        76692        75818
     3.38300        74866        74031        73264        72359        71537
     3.40000        70763        70022        69218        68423        67698
     3.41700        67009        66354        65697        65105        64474
     3.43300        63866        63320        62805        62297        61778
     3.45000        61273        60816        60361        59940        59541
     3.46700        59168        58799        58405        58048        57707
     3.48300        57371        57048        56757        56452        56178
     3.50000        55900        55650        55399        55163        54928
     3.51700        54706        54476        54283        54095        53902
     3.53300        53730        53548        53375        53203        53040
     3.55000        52898        52739        52607        52463        52342
     3.56700        52221        52094        51974        51861        51762
     3.58300        51643        51549        51475        51365        51293
     3.60000        51197        51121        51035        50967        50889
     3.61700        50830        50769        50694        50635        50574
     3.63300        50517        50459        50399        50354        50294
     3.65000        50250        50197        50150        50107        50057
     3.66700        50022        49973        49939        49901        49870
     3.68300        49835        49795        49761        49737        49701
     3.70000        49658        49625        49602        49573        49543
     3.71700        49509        49481        49458        49439        49407
     3.73300        49381        49367        49333        49315        49279
     3.75000        49257        49245        49222        49201        49178
     3.76700        49151        49141        49123        49106        49098
     3.78300        49082        49072        49070        49066        49046
     3.80000        49036        49029        49033        49029        49034
     3.81700        49044        49041        49040        49058        49068
     3.83300        49077        49101        49110        49121        49135
     3.85000        49151        49169        49193        49206        49225
     3.86700        49233        49253        49266        49291        49303
     3.88300        49309        49322        49331        49343        49358
     3.90000        49367        49359        49375        49386        49390
     3.91700        49391        49389        49389        49389        49387
     3.93300        49382        49377        49371        49377        49363
     3.95000        49365        49355        49343        49346        49330
     3.96700        49317        49310        49313        49295        49294
     3.98300        49285        49271        49266        49255        49243
     4.00000        49230        49217        49213        49203        49201
     4.01700        49193        49194        49182        49169        49167
     4.03300        49146        49154        49142        49141        49127
     4.05000        49126        49111        49111        49103        49106
     4.06700        49098        49089        49083        49081        49070
     4.08300        49065        49066        49062        49042        49036
     4.10000        49021        49008        48985        48966        48965
     4.11700        48946        48925        48928        48922        48901
     4.13300        48908        48898        48889        48881        48890
     4.15000        48874        48880        48870        48868        48870
     4.16700        48858        48861        48857        48850        48850
     4.18300        48836        48842        48842        48834        48830
     4.20000        48824        48816        48813        48809        48806
     4.21700        48806        48808        48789        48789        48793
     4.23300        48790        48784        48780        48778        48770
     4.25000        48765        48772        48760        48753        48752
     4.26700        48748        48742        48757        48736        48736
     4.28300        48742        48733        48744        48730        48724
     4.30000        48728        48722        48732        48710        48705
     4.31700        48708        48702        48712        48702        48694
     4.33300        48696        48694        48690        48686        48685
     4.35000        48670        48684        48685        48673        48677
     4.36700        48677        48681        48668        48673        48680
     4.38300        48672        48666        48669        48664        48652
     4.40000        48660        48657        48653        48656        48653
     4.41700        48649        48637        48648        48640        48641
     4.43300        48638        48646        48636        48636        48642
     4.45000        48636        48628        48632        48628        48632
     4.46700        48629        48621        48625        48625        48630
     4.48300        48616        48622        48618        48618        48634
     4.50000        48629        48624        48632        48630        48636
     4.51700        48633        48636        48650        48644        48650
     4.53300        48657        48656        48666        48668        48685
     4.55000        48684        48688        48693        48688        48690
     4.56700        48689        48690        48696        48688        48693
     4.58300        48702        48688        48688        48680        48688
     4.60000        48684        48678        48677        48681        48680
     4.61700        48682        48673        48681        48676        48669
     4.63300        48677        48661        48668        48672        48672
     4.65000        48669        48662        48668        48660        48665
     4.66700        48658        48664        48664        48669        48672
     4.68300        48666        48678        48688        48696        48709
     4.70000        48724        48748        48769        48802        48857
     4.71700        48902        48964        49057        49151        49282
     4.73300        49425        49591        49777        50011        50261
     4.75000        50542        50831        51162        51514        51875
     4.76700        52257        52659        53055        53472        53915
     4.78300        54335        54736        55147        55536        55920
     4.80000        56284        56613        56917        57212        57471
     4.81700        57696        57904        58089        58233        58348
     4.83300        58436        58500        58555        58584        58564
     4.85000        58553        58505        58425        58368        58283
     4.86700        58163        58064        57940        57777        57623
     4.88300        57440        57249        57077        56887        56703
     4.90000        56488        56287        56083        55880        55668
     4.91700        55470        55268        55051        54840        54631
     4.93300        54432        54256        54071        53882        53706
     4.95000        53519        53338        53175        53006        52831
     4.96700        52665        52495        52345        52199        52054
     4.98300        51922        51778        51655        51527        51403
     5.00000        51286        51173        51062        50958        50854
     5.01700        50759        50671        50571        50486        50399
     5.03300        50314        50254        50170        50091        50051
     5.05000        49974        49913        49846        49789        49726
     5.06700        49685        49629        49582        49534        49487
     5.08300        49449        49411        49389        49335        49299
     5.10000        49278        49243        49199        49182        49145
     5.11700        49125        49089        49074        49054        49028
     5.13300        49002        48986        48958        48946        48937
     5.15000        48920        48902        48876        48874        48866
     5.16700        48844        48836        48834        48820        48805
     5.18300        48796        48781        48780        48766        48761
     5.20000        48760        48745        48746        48732        48734
     5.21700        48726        48722        48717        48713        48706
     5.23300        48705        48700        48694        48697        48696
     5.25000        48684        48684        48678        48678        48677
     5.26700        48674        48666        48665        48660        48658
     5.28300        48662        48650        48653        48648        48653
     5.30000        48649        48640        48644        48645        48638
     5.31700        48641        48633        48640        48638        48636
     5.33300        48632        48622        48621        48620        48622
     5.35000        48620        48618        48612        48612        48613
     5.36700        48613        48613        48610        48606        48609
     5.38300        48605        48597        48605        48609        48601
     5.40000        48605        48598        48602        48604        48594
     5.41700        48602        48610        48604        48605        48608
     5.43300        48608        48609        48610        48606        48614
     5.45000        48610        48613        48614        48608        48621
     5.46700        48606        48613        48612        48616        48617
     5.48300        48616        48616        48620        48613        48622
     5.50000        48625        48617        48618        48617        48622
     5.51700        48617        48628        48622        48616        48605
     5.53300        48612        48618        48609        48612        48616
     5.55000        48617        48608        48609        48602        48597
     5.56700        48597        48593        48597        48592        48594
     5.58300        48596        48589        48593        48592        48588
     5.60000        48588        48580        48581        48576        48572
     5.61700        48577        48576        48584        48577        48565
     5.63300        48562        48566        48566        48562        48548
     5.65000        48548        48554        48554        48541        48538
     5.66700        48537        48537        48533        48526        48538
     5.68300        48536        48532        48537        48534        48530
     5.70000        48526        48525        48525        48524        48521
     5.71700        48521        48520        48510        48514        48520
     5.73300        48505        48517        48505        48517        48513
     5.75000        48524        48516        48521        48520        48522
     5.76700        48513        48524        48522        48520        48528
     5.78300        48522        48533        48534        48533        48536
     5.80000        48544        48545        48546        48553        48552
     5.81700        48554        48565        48558        48574        48569
     5.83300        48577        48577        48577        48593        48586
     5.85000        48589        48597        48598        48605        48613
     5.86700        48604        48614        48614        48616        48610
     5.88300        48618        48616        48624        48628        48614
     5.90000        48621        48625        48630        48613        48625
     5.91700        48624        48630        48629        48632        48632
     5.93300        48626        48640        48636        48656        48650
     5.95000        48668        48676        48684        48717        48744
     5.96700        48772        48814        48861        48902        48972
     5.98300        49052        49129        49202        49313        49422
     6.00000        49531        49638        49771        49919        50049
     6.01700        50203        50346        50499        50650        50775
     6.03300        50930        51069        51198        51318        51437
     6.05000        51542        51645        51734        51822        51910
     6.06700        51969        52029        52082        52115        52150
     6.08300        52162        52173        52185        52190        52178
     6.10000        52162        52146        52125        52078        52031
     6.11700        52002        51937        51887        51834        51765
     6.13300        51699        51629        51565        51498        51434
     6.15000        51361        51274        51207        51130        51059
     6.16700        50989        50914        50839        50778        50710
     6.18300        50633        50557        50483        50429        50363
     6.20000        50294        50230        50171        50103        50039
     6.21700        49999        49943        49890        49833        49779
     6.23300        49725        49686        49638        49605        49561
     6.25000        49522        49491        49453        49423        49393
     6.26700        49366        49335        49302        49289        49270
     6.28300        49257        49237        49225        49207        49187
     6.30000        49193        49181        49177        49166        49161
     6.31700        49169        49162        49178        49175        49166
     6.33300        49166        49175        49182        49201        49209
     6.35000        49230        49237        49267        49278        49311
     6.36700        49321        49347        49371        49394        49418
     6.38300        49457        49481        49505        49557        49575
     6.40000        49613        49641        49678        49719        49758
     6.41700        49795        49823        49861        49898        49931
     6.43300        49955        49983        50009        50046        50081
     6.45000        50090        50110        50139        50158        50161
     6.46700        50186        50179        50189        50202        50198
     6.48300        50201        50199        50198        50199        50193
     6.50000        50174        50161        50165        50133        50118
     6.51700        50103        50081        50070        50035        50021
     6.53300        49997        49973        49954        49931        49911
     6.55000        49887        49863        49842        49810        49789
     6.56700        49769        49743        49719        49703        49679
     6.58300        49662        49629        49625        49601        49577
     6.60000        49567        49554        49539        49531        49525
     6.61700        49507        49513        49503        49505        49503
     6.63300        49510        49526        49531        49553        49562
     6.65000        49585        49605        49627        49651        49679
     6.66700        49717        49753        49794        49826        49882
     6.68300        49917        49959        50009        50061        50101
     6.70000        50155        50201        50243        50286        50318
     6.71700        50358        50406        50442        50477        50511
     6.73300        50538        50555        50582        50601        50614
     6.75000        50625        50637        50645        50649        50657
     6.76700        50642        50634        50617        50610        50585
     6.78300        50571        50551        50538        50505        50482
     6.80000        50446        50415        50391        50357        50323
     6.81700        50287        50245        50209        50169        50135
     6.83300        50089        50061        50033        49975        49946
     6.85000        49901        49866        49830        49789        49767
     6.86700        49722        49690        49654        49626        49594
     6.88300        49557        49529        49501        49477        49429
     6.90000        49402        49377        49361        49329        49298
     6.91700        49270        49255        49223        49198        49170
     6.93300        49151        49142        49119        49098        49080
     6.95000        49062        49044        49025        49010        48992
     6.96700        48977        48954        48949        48937        48922
     6.98300        48920        48901        48888        48881        48870
     7.00000        48850        48857        48834        48845        48824
     7.01700        48812        48822        48818        48812        48806
     7.03300        48826        48814        48817        48822        48822
     7.05000        48824        48838        48844        48846        48862
     7.06700        48877        48882        48897        48900        48908
     7.08300        48930        48946        48954        48976        48981
     7.10000        48996        49012        49037        49044        49066
     7.11700        49082        49094        49123        49138        49163
     7.13300        49198        49219        49265        49289        49338
     7.15000        49370        49422        49474        49543        49601
     7.16700        49665        49741        49823        49902        49995
     7.18300        50089        50183        50282        50387        50486
     7.20000        50589        50691        50786        50875        50986
     7.21700        51067        51169        51257        51318        51399
     7.23300        51467        51547        51607        51658        51709
     7.25000        51723        51758        51781        51791        51805
     7.26700        51805        51807        51785        51777        51750
     7.28300        51737        51703        51685        51645        51599
     7.30000        51550        51497        51441        51402        51351
     7.31700        51303        51237        51173        51123        51063
     7.33300        51005        50950        50886        50833        50781
     7.35000        50714        50661        50603        50545        50493
     7.36700        50439        50378        50327        50277        50233
     7.38300        50182        50134        50086        50038        50010
     7.40000        49963        49926        49886        49845        49801
     7.41700        49787        49742        49715        49687        49653
     7.43300        49627        49591        49577        49551        49518
     7.45000        49494        49473        49449        49423        49413
     7.46700        49379        49359        49330        49309        49291
     7.48300        49273        49255        49234        49218        49195
     7.50000        49170        49158        49143        49129        49109
     7.51700        49093        49072        49042        49038        49024
     7.53300        49004        48986        48981        48958        48952
     7.55000        48933        48917        48912        48898        48877
     7.56700        48872        48870        48860        48845        48833
     7.58300        48812        48814        48800        48800        48780
     7.60000        48786        48764        48750        48748        48744
     7.61700        48738        48737        48730        48717        48725
     7.63300        48718        48713        48704        48701        48700
     7.65000        48701        48689        48693        48696        48686
     7.66700        48689        48688        48688        48689        48692
     7.68300        48680        48682        48688        48689        48694
     7.70000        48690        48702        48710        48702        48709
     7.71700        48726        48726        48722        48733        48730
     7.73300        48737        48744        48753        48757        48765
     7.75000        48768        48777        48785        48788        48796
     7.76700        48800        48794        48800        48814        48814
     7.78300        48817        48824        48824        48824        48824
     7.80000        48828        48832        48826        48828        48817
     7.81700        48820        48821        48820        48824        48808
     7.83300        48817        48809        48802        48801        48797
     7.85000        48789        48793        48782        48782        48773
     7.86700        48762        48768        48758        48742        48738
     7.88300        48733        48718        48728        48720        48713
     7.90000        48706        48704        48700        48690        48681
     7.91700        48678        48672        48660        48660        48653
     7.93300        48653        48641        48637        48632        48637
     7.95000        48632        48638        48645        48645        48640
     7.96700        48656        48657        48662        48682        48674
     7.98300        48700        48706        48724        48750        48776
     8.00000        48800        48828        48874        48916        48953
     8.01700        49010        49046        49105        49170        49219
     8.03300        49291        49346        49414        49477        49553
     8.05000        49623        49699        49765        49837        49901
     8.06700        49965        50038        50090        50147        50203
     8.08300        50249        50311        50359        50397        50431
     8.10000        50466        50494        50518        50535        50558
     8.11700        50570        50575        50582        50579        50558
     8.13300        50563        50563        50541        50526        50521
     8.15000        50493        50463        50447        50427        50401
     8.16700        50366        50329        50307        50270        50255
     8.18300        50218        50174        50141        50113        50079
     8.20000        50059        50031        50010        49981        49950
     8.21700        49933        49906        49881        49865        49850
     8.23300        49818        49810        49801        49795        49766
     8.25000        49762        49743        49729        49722        49718
     8.26700        49691        49685        49673        49662        49646
     8.28300        49635        49623        49610        49606        49586
     8.30000        49583        49573        49551        49539        49529
     8.31700        49521        49501        49494        49471        49451
     8.33300        49433        49413        49402        49382        49359
     8.35000        49357        49325        49310        49298        49277
     8.36700        49257        49245        49231        49203        49190
     8.38300        49173        49157        49141        49125        49101
     8.40000        49097        49074        49065        49044        49028
     8.41700        49012        48994        48985        48978        48954
     8.43300        48940        48932        48914        48908        48893
     8.45000        48886        48877        48864        48861        48844
     8.46700        48844        48828        48821        48810        48810
     8.48300        48800        48790        48785        48776        48776
     8.50000        48768        48758        48752        48752        48745
     8.51700        48741        48741        48734        48725        48725
     8.53300        48730        48724        48728        48708        48714
     8.55000        48708        48714        48714        48702        48693
     8.56700        48700        48700        48698        48694        48698
     8.58300        48700        48690        48690        48697        48690
     8.60000        48686        48693        48689        48694        48689
     8.61700        48690        48685        48686        48694        48697
     8.63300        48706        48697        48705        48718        48721
     8.65000        48734        48738        48753        48778        48805
     8.66700        48834        48870        48924        48973        49045
     8.68300        49110        49195        49309        49438        49590
     8.70000        49746        49931        50149        50378        50639
     8.71700        50931        51225        51585        51942        52319
     8.73300        52703        53115        53564        54016        54479
     8.75000        54930        55399        55874        56332        56821
     8.76700        57305        57759        58193        58601        58980
     8.78300        59327        59700        60046        60392        60684
     8.80000        60930        61136        61310        61512        61673
     8.81700        61800        61849        61897        61904        61889
     8.83300        61870        61868        61801        61737        61654
     8.85000        61521        61341        61150        60990        60818
     8.86700        60625        60422        60206        59951        59712
     8.88300        59492        59269        59019        58755        58503
     8.90000        58216        57936        57688        57413        57157
     8.91700        56901        56683        56449        56206        55952
     8.93300        55702        55470        55235        55039        54810
     8.95000        54588        54376        54164        53955        53778
     8.96700        53606        53411        53235        53075        52895
     8.98300        52720        52561        52419        52273        52131
     9.00000        51985        51841        51721        51594        51477
     9.01700        51374        51261        51159        51065        50971
     9.03300        50873        50782        50689        50609        50522
     9.05000        50445        50361        50294        50209        50150
     9.06700        50093        50029        49961        49913        49855
     9.08300        49807        49742        49702        49665        49613
     9.10000        49562        49518        49486        49449        49414
     9.11700        49371        49346        49299        49277        49246
     9.13300        49217        49193        49157        49137        49107
     9.15000        49089        49069        49040        49018        49000
     9.16700        48990        48965        48945        48929        48912
     9.18300        48904        48890        48873        48860        48844
     9.20000        48840        48816        48813        48798        48793
     9.21700        48778        48764        48760        48740        48733
     9.23300        48738        48720        48720        48716        48706
     9.25000        48700        48700        48696        48682        48669
     9.26700        48681        48658        48662        48664        48654
     9.28300        48656        48642        48649        48645        48645
     9.30000        48641        48630        48629        48633        48626
     9.31700        48625        48622        48625        48622        48620
     9.33300        48613        48613        48602        48602        48609
     9.35000        48602        48600        48609        48604        48593
     9.36700        48600        48600        48593        48601        48593
     9.38300        48590        48594        48598        48584        48589
     9.40000        48585        48584        48594        48586        48586
     9.41700        48585        48596        48580        48576        48581
     9.43300        48577        48562        48576        48566        48570
     9.45000        48568        48568        48561        48569        48568
     9.46700        48568        48560        48557        48562        48546
     9.48300        48553        48552        48552        48554        48557
     9.50000        48558        48548        48546        48542        48538
     9.51700        48548        48545        48544        48546        48544
     9.53300        48538        48553        48545        48534        48532
     9.55000        48532        48536        48528        48541        48526
     9.56700        48524        48529        48520        48537        48532
     9.58300        48520        48528        48524        48530        48533
     9.60000        48524        48526        48517        48514        48525
     9.61700        48522        48514        48510        48520        48516
     9.63300        48514        48514        48512        48508        48509
     9.65000        48504        48506        48509        48508        48496
     9.66700        48500        48494        48498        48504        48493
     9.68300        48494        48486        48498        48492        48492
     9.70000        48492        48488        48489        48489        48500
     9.71700        48492        48492        48486        48494        48486
     9.73300        48488        48480        48481        48478        48480
     9.75000        48484        48478        48484        48474        48480
     9.76700        48480        48482        48489        48472        48488
     9.78300        48484        48484        48472        48482        48482
     9.80000        48489        48482        48489        48482        48485
     9.81700        48489        48486        48486        48492        48486
     9.83300        48486        48477        48484        48490        48486
     9.85000        48489        48497        48488        48494        48494
     9.86700        48484        48489        48486        48485        48496
     9.88300        48485        48490        48488        48485        48485
     9.90000        48489        48489        48489        48489        48488
     9.91700        48492        48482        48494        48494        48500
     9.93300        48500        48500        48509        48493        48506
     9.95000        48508        48506        48517        48501        48508
     9.96700        48513        48518        48510        48500        48512
     9.98300        48512        48514        48516        48517        48530
    10.00000        48517        48537        48517        48537        48528
    10.01700        48525        48518        48518        48530        48525
    10.03300        48528        48524        48533        48520        48533
    10.05000        48521        48525        48532        48533        48529
    10.06700        48528        48533        48525        48528        48524
    10.08300        48524        48514        48524        48521        48514
    10.10000        48518        48517        48510        48506        48506
    10.11700        48506        48510        48501        48501        48504
    10.13300        48488        48493        48497        48490        48484
    10.15000        48492        48482        48482        48484        48477
    10.16700        48478        48482        48490        48477        48472
    10.18300        48474        48476        48472        48473        48469
    10.20000        48472        48465        48466        48468        48466
    10.21700        48473        48465        48477        48465        48462
    10.23300        48469        48457        48466        48464        48456
    10.25000        48453        48456        48453        48453        48462
    10.26700        48462        48446        48456        48448        48450
    10.28300        48454        48440        48446        48448        48452
    10.30000        48460        48452        48452        48461        48452
    10.31700        48449        48450        48457        48454        48449
    10.33300        48453        48448        48454        48452        48452
    10.35000        48441        48453        48448        48445        48449
    10.36700        48448        48436        48452        48450        48452
    10.38300        48450        48448        48448        48448        48462
    10.40000        48452        48464        48461        48473        48462
    10.41700        48468        48469        48469        48469        48474
    10.43300        48477        48484        48465        48485        48489
    10.45000        48489        48488        48502        48494        48489
    10.46700        48496        48497        48494        48505        48508
    10.48300        48504        48502        48530        48509        48509
    10.50000        48506        48510        48516        48505        48509
    10.51700        48505        48504        48520        48518        48513
    10.53300        48517        48517        48510        48504        48506
    10.55000        48502        48514        48506        48502        48517
    10.56700        48509        48509        48501        48497        48501
    10.58300        48501        48509        48493        48504        48490
    10.60000        48501        48493        48492        48500        48498
    10.61700        48490        48494        48496        48505        48506
    10.63300        48497        48492        48490        48496        48496
    10.65000        48508        48490        48490        48494        48498
    10.66700        48494        48498        48496        48494        48506
    10.68300        48497        48500        48504        48502        48496
    10.70000        48502        48500        48500        48504        48496
    10.71700        48501        48512        48502        48504        48501
    10.73300        48510        48516        48510        48517        48521
    10.75000        48514        48500        48513        48510        48504
    10.76700        48508        48509        48512        48509        48513
    10.78300        48508        48510        48517        48517        48510
    10.80000        48516        48513        48520        48516        48516
    10.81700        48513        48510        48504        48506        48502
    10.83300        48510        48510        48508        48512        48510
    10.85000        48512        48516        48513        48518        48514
    10.86700        48514        48514        48510        48514        48510
    10.88300        48517        48522        48508        48516        48517
    10.90000        48512        48520        48522        48521        48514
    10.91700        48514        48516        48524        48521        48516
    10.93300        48518        48520        48501        48522        48514
    10.95000        48522        48520        48513        48516        48520
    10.96700        48516        48516        48512        48509        48520
    10.98300        48520        48504        48520        48510        48510
    11.00000        48520        48508        48508        48506        48514
    11.01700        48508        48510        48509        48512        48508
    11.03300        48510        48501        48505        48504        48500
    11.05000        48501        48506        48501        48509        48501
    11.06700        48501        48504        48501        48505        48500
    11.08300        48498        48505        48501        48500        48496
    11.10000        48502        48497        48497        48496        48506
    11.11700        48504        48492        48500        48500        48500
    11.13300        48496        48504        48500        48490        48492
    11.15000        48488        48496        48486        48492        48494
    11.16700        48498        48485        48500        48500        48496
    11.18300        48493        48498        48488        48500        48493
    11.20000        48501        48493        48488        48496        48498
    11.21700        48494        48492        48497        48500        48493
    11.23300        48494        48496        48496        48486        48494
    11.25000        48484        48485        48498        48496        48497
    11.26700        48497        48496        48496        48497        48484
    11.28300        48500        48505        48505        48488        48490
    11.30000        48496        48489        48488        48486        48492
    11.31700        48496        48492        48486        48492        48489
    11.33300        48497        48498        48493        48498        48494
    11.35000        48502        48506        48500        48493        48497
    11.36700        48504        48496        48492        48493        48492
    11.38300        48488        48488        48489        48498        48486
    11.40000        48480        48498        48488        48490        48477
    11.41700        48488        48476        48489        48486        48478
    11.43300        48489        48489        48477        48484        48481
    11.45000        48480        48469        48477        48470        48468
    11.46700        48476        48469        48465        48464        48468
    11.48300        48468        48460        48465        48462        48452
    11.50000        48453        48449        48456        48450        48452
    11.51700        48449        48446        48457        48456        48445
    11.53300        48445        48448        48446        48448        48445
    11.55000        48437        48445        48444        48442        48438
    11.56700        48440        48440        48449        48449        48449
    11.58300        48445        48442        48445        48448        48446
    11.60000        48450        48450        48453        48448        48440
    11.61700        48458        48460        48461        48461        48460
    11.63300        48465        48458        48461        48468        48458
    11.65000        48484        48481        48485        48482        48472
    11.66700        48489        48498        48497        48500        48508
    11.68300        48502        48508        48517        48516        48522
    11.70000        48526        48532        48533        48540        48548
    11.71700        48542        48545        48558        48564        48562
    11.73300        48561        48576        48578        48577        48589
    11.75000        48584        48596        48592        48589        48605
    11.76700        48604        48609        48602        48618        48608
    11.78300        48618        48626        48618        48621        48620
    11.80000        48622        48622        48616        48629        48626
    11.81700        48618        48624        48620        48610        48617
    11.83300        48616        48613        48598        48604        48592
    11.85000        48592        48597        48590        48590        48580
    11.86700        48582        48578        48576        48565        48570
    11.88300        48568        48560        48554        48546        48542
    11.90000        48550        48552        48546        48537        48541
    11.91700        48526        48522        48520        48525        48520
    11.93300        48514        48509        48512        48502        48506
    11.95000        48514        48508        48494        48485        48496
    11.96700        48484        48478        48492        48486        48477
    11.98300        48478        48477        48476        48473        48481
    12.00000        48474        48485        48466        48482        48481
    12.01700        48473        48482        48486        48470        48485
    12.03300        48477        48481        48488        48492        48496
    12.05000        48502        48508        48516        48513        48529
    12.06700        48545        48550        48565        48589        48594
    12.08300        48620        48636        48652        48686        48706
    12.10000        48744        48772        48810        48856        48898
    12.11700        48940        48997        49041        49095        49161
    12.13300        49215        49271        49338        49406        49481
    12.15000        49547        49614        49682        49746        49823
    12.16700        49898        49974        50047        50110        50181
    12.18300        50249        50311        50369        50429        50498
    12.20000        50529        50579        50645        50675        50713
    12.21700        50757        50789        50803        50835        50863
    12.23300        50863        50875        50894        50889        50895
    12.25000        50890        50881        50875        50865        50843
    12.26700        50829        50798        50778        50753        50719
    12.28300        50686        50655        50631        50602        50551
    12.30000        50523        50485        50433        50401        50355
    12.31700        50305        50269        50230        50177        50129
    12.33300        50087        50046        49997        49957        49926
    12.35000        49867        49834        49781        49745        49703
    12.36700        49666        49625        49590        49549        49509
    12.38300        49475        49438        49402        49375        49331
    12.40000        49303        49267        49235        49210        49179
    12.41700        49147        49127        49103        49070        49052
    12.43300        49030        49013        48984        48964        48948
    12.45000        48932        48906        48897        48874        48869
    12.46700        48844        48829        48826        48805        48786
    12.48300        48765        48764        48754        48737        48721
    12.50000        48714        48700        48698        48680        48677
    12.51700        48670        48666        48656        48641        48640
    12.53300        48641        48624        48618        48618        48610
    12.55000        48600        48593        48585        48592        48582
    12.56700        48574        48565        48566        48561        48554
    12.58300        48564        48548        48546        48540        48534
    12.60000        48534        48536        48526        48521        48520
    12.61700        48512        48517        48509        48510        48492
    12.63300        48496        48500        48494        48498        48493
    12.65000        48486        48493        48489        48484        48486
    12.66700        48489        48484        48484        48477        48477
    12.68300        48474        48476        48470        48477        48473
    12.70000        48472        48478        48477        48470        48476
    12.71700        48465        48469        48470        48461        48461
    12.73300        48464        48462        48465        48469        48464
    12.75000        48465        48465        48462        48464        48453
    12.76700        48454        48457        48460        48456        48458
    12.78300        48462        48461        48456        48452        48454
    12.80000        48456        48458        48460        48449        48453
    12.81700        48456        48449        48454        48446        48450
    12.83300        48454        48446        48457        48446        48448
    12.85000        48450        48446        48442        48449        48440
    12.86700        48442        48448        48437        48441        48438
    12.88300        48440        48449        48433        48446        48446
    12.90000        48437        48438        48437        48438        48438
    12.91700        48436        48437        48440        48437        48442
    12.93300        48442        48438        48436        48441        48437
    12.95000        48445        48441        48438        48436        48444
    12.96700        48440        48446        48441        48448        48436
    12.98300        48440        48437        48445        48446        48441
    13.00000        48434        48433        48444        48444        48446
    13.01700        48438        48449        48438        48436        48433
    13.03300        48430        48428        48428        48438        48433
    13.05000        48438        48429        48437        48430        48433
    13.06700        48434        48428        48428        48424        48416
    13.08300        48426        48429        48416        48418        48428
    13.10000        48426        48420        48424        48420        48418
    13.11700        48422        48422        48413        48420        48408
    13.13300        48418        48417        48410        48420        48418
    13.15000        48416        48425        48420        48421        48422
    13.16700        48412        48418        48421        48413        48418
    13.18300        48424        48420        48422        48426        48417
    13.20000        48424        48420        48410        48424        48417
    13.21700        48409        48413        48418        48416        48424
    13.23300        48417        48413        48414        48418        48418
    13.25000        48425        48413        48416        48421        48410
    13.26700        48414        48413        48418        48417        48417
    13.28300        48418        48406        48417        48418        48410
    13.30000        48398        48413        48418        48413        48410
    13.31700        48405        48409        48412        48412        48418
    13.33300        48405        48412        48420        48416        48421
    13.35000        48413        48424        48421        48416        48422
    13.36700        48417        48422        48420        48428        48422
    13.38300        48425        48428        48433        48432        48441
    13.40000        48430        48432        48428        48432        48437
    13.41700        48440        48433        48433        48441        48433
    13.43300        48438        48440        48437        48441        48440
    13.45000        48437        48434        48438        48436        48437
    13.46700        48433        48429        48429        48440        48444
    13.48300        48438        48434        48438        48433        48433
    13.50000        48442        48436        48433        48438        48429
    13.51700        48444        48434        48438        48437        48433
    13.53300        48434        48428        48428        48426        48429
    13.55000        48432        48434        48441        48433        48430
    13.56700        48426        48426        48432        48430        48434
    13.58300        48432        48418        48430        48417        48429
    13.60000        48422        48422        48416        48421        48421
    13.61700        48421        48424        48418        48410        48409
    13.63300        48418        48416        48410        48413        48425
    13.65000        48408        48416        48402        48405        48422
    13.66700        48410        48416        48406        48416        48402
    13.68300        48405        48418        48412        48408        48416
    13.70000        48416        48409        48412        48413        48405
    13.71700        48409        48396        48409        48409        48412
    13.73300        48412        48410        48412        48413        48410
    13.75000        48412        48409        48417        48408        48406
    13.76700        48412        48412        48418        48410        48409
    13.78300        48414        48409        48414        48409        48417
    13.80000        48418        48406        48408        48414        48404
    13.81700        48410        48409        48409        48416        48420
    13.83300        48405        48405        48401        48422        48404
    13.85000        48396        48398        48404        48410        48402
    13.86700        48398        48406        48406        48413        48400
    13.88300        48401        48404        48405        48404        48405
    13.90000        48400        48396        48408        48402        48401
    13.91700        48405        48394        48406        48402        48400
    13.93300        48404        48397        48396        48398        48396
    13.95000        48393        48397        48401        48401        48400
    13.96700        48396        48402        48402        48396        48405
    13.98300        48404        48414        48410        48416        48413
    14.00000        48412        48421        48424        48428        48438
    14.01700        48448        48448        48464        48468        48484
    14.03300        48485        48510        48517        48540        48548
    14.05000        48568        48588        48605        48628        48638
    14.06700        48664        48682        48693        48716        48736
    14.08300        48762        48772        48801        48808        48829
    14.10000        48838        48857        48873        48898        48905
    14.11700        48921        48937        48949        48970        48978
    14.13300        48990        49000        49020        49033        49041
    14.15000        49056        49062        49061        49074        49085
    14.16700        49098        49105        49103        49109        49119
    14.18300        49133        49127        49138        49135        49146
    14.20000        49142        49139        49149        49153        49151
    14.21700        49154        49154        49155        49143        49150
    14.23300        49147        49145        49157        49145        49133
    14.25000        49143        49133        49127        49131        49131
    14.26700        49117        49118        49115        49121        49118
    14.28300        49111        49113        49106        49091        49095
    14.30000        49097        49087        49086        49072        49077
    14.31700        49077        49068        49066        49060        49066
    14.33300        49058        49049        49041        49037        49037
    14.35000        49028        49033        49014        49018        49006
    14.36700        48994        48994        48993        49000        48993
    14.38300        48978        48981        48964        48973        48958
    14.40000        48952        48952        48948        48936        48938
    14.41700        48926        48928        48917        48914        48914
    14.43300        48910        48900        48900        48890        48884
    14.45000        48884        48872        48874        48866        48864
    14.46700        48856        48845        48846        48845        48840
    14.48300        48832        48834        48824        48820        48816
    14.50000        48809        48818        48808        48794        48802
    14.51700        48794        48801        48786        48798        48780
    14.53300        48777        48780        48773        48768        48764
    14.55000        48765        48764        48757        48752        48748
    14.56700        48734        48745        48741        48733        48721
    14.58300        48724        48722        48716        48705        48713
    14.60000        48698        48694        48693        48686        48682
    14.61700        48680        48681        48666        48686        48670
    14.63300        48677        48656        48665        48649        48646
    14.65000        48645        48644        48633        48626        48638
    14.66700        48629        48632        48625        48606        48621
    14.68300        48606        48612        48622        48612        48613
    14.70000        48605        48596        48610        48594        48592
    14.71700        48598        48590        48581        48588        48589
    14.73300        48594        48586        48580        48589        48582
    14.75000        48584        48570        48581        48572        48565
    14.76700        48565        48574        48566        48553        48557
    14.78300        48557        48560        48560        48564        48560
    14.80000        48553        48553        48552        48540        48530
    14.81700        48549        48534        48534        48522        48521
    14.83300        48526        48525        48522        48526        48516
    14.85000        48517        48518        48514        48508        48509
    14.86700        48510        48509        48500        48494        48506
    14.88300        48504        48497        48509        48502        48497
    14.90000        48501        48494        48497        48493        48486
    14.91700        48485        48485        48484        48481        48490
    14.93300        48493        48474        48476        48481        48485
    14.95000        48476        48481        48478        48470        48469
    14.96700        48481        48470        48473        48470        48465
    14.98300        48464        48461        48454        48454        48461
    15.00000        48456        48458        48458        48454        48466
    15.01700        48446        48434        48438        48449        48441
    15.03300        48437        48448        48446        48428        48441
    15.05000        48444        48445        48446        48428        48428
    15.06700        48421        48429        48428        48417        48424
    15.08300        48413        48424        48421        48412        48414
    15.10000        48425        48421        48414        48416        48406
    15.11700        48408        48405        48410        48401        48394
    15.13300        48392        48389        48374        48384        48376
    15.15000        48374        48358        48357        48374        48358
    15.16700        48361        48362        48345        48370        48361
    15.18300        48369        48354        48365        48365        48361
    15.20000        48362        48368        48357        48357        48365
    15.21700        48364        48360        48366        48350        48362
    15.23300        48357        48360        48364        48368        48360
    15.25000        48372        48373        48354        48366        48368
    15.26700        48373        48362        48370        48374        48376
    15.28300        48369        48377        48369        48381        48373
    15.30000        48378        48380        48376        48372        48377
    15.31700        48378        48374        48381        48378        48381
    15.33300        48380        48374        48381        48381        48368
    15.35000        48380        48381        48381        48385        48380
    15.36700        48370        48376        48382        48384        48384
    15.38300        48377        48384        48392        48381        48388
    15.40000        48397        48397        48401        48402        48404
    15.41700        48404        48413        48401        48393        48397
    15.43300        48402        48404        48394        48392        48392
    15.45000        48393        48388        48385        48385        48401
    15.46700        48392        48393        48397        48382        48392
    15.48300        48392        48384        48392        48377        48389
    15.50000        48386        48384        48381        48385        48386
    15.51700        48382        48394        48384        48382        48377
    15.53300        48381        48381        48382        48385        48385
    15.55000        48386        48377        48384        48369        48382
    15.56700        48382        48392        48382        48385        48381
    15.58300        48393        48389        48390        48381        48398
    15.60000        48393        48393        48392        48388        48388
    15.61700        48394        48392        48394        48393        48390
    15.63300        48394        48401        48386        48389        48390
    15.65000        48392        48393        48406        48398        48385
    15.66700        48390        48393        48392        48396        48390
    15.68300        48392        48377        48381        48390        48394
    15.70000        48390        48389        48401        48400        48390
    15.71700        48386        48384        48388        48374        48408
    15.73300        48413        48397        48392        48382        48381
    15.75000        48378        48384        48386        48393        48390
    15.76700        48382        48385        48386        48386        48394
    15.78300        48385        48393        48396        48385        48386
    15.80000        48392        48392        48394        48390        48397
    15.81700        48393        48388        48390        48393        48392
    15.83300        48392        48390        48386        48401        48397
    15.85000        48394        48381        48397        48386        48385
    15.86700        48396        48393        48392        48390        48396
    15.88300        48389        48389        48389        48394        48394
    15.90000        48388        48389        48400        48397        48396
    15.91700        48393        48394        48385        48393        48396
    15.93300        48393        48392        48394        48390        48393
    15.95000        48396        48390        48390        48388        48385
    15.96700        48390        48386        48378        48385        48385
    15.98300        48378        48385        48374        48381        48389
    16.00000        48385        48382        48381        48385        48378
    16.01700        48382        48380        48388        48382        48373
    16.03300        48388        48376        48380        48384        48390
    16.05000        48385        48377        48377        48369        48377
    16.06700        48373        48380        48373        48373        48373
    16.08300        48376        48374        48386        48386        48380
    16.10000        48381        48386        48386        48382        48380
    16.11700        48390        48373        48376        48374        48380
    16.13300        48382        48374        48378        48384        48378
    16.15000        48388        48369        48372        48377        48376
    16.16700        48376        48376        48370        48389        48384
    16.18300        48389        48382        48382        48385        48388
    16.20000        48394        48392        48385        48380        48402
    16.21700        48389        48385        48400        48400        48397
    16.23300        48409        48402        48404        48400        48402
    16.25000        48405        48405        48406        48408        48414
    16.26700        48409        48413        48414        48424        48421
    16.28300        48422        48424        48426        48414        48425
    16.30000        48416        48420        48432        48424        48429
    16.31700        48418        48432        48438        48437        48445
    16.33300        48441        48454        48437        48449        48445
    16.35000        48452        48449        48448        48458        48456
    16.36700        48468        48464        48458        48469        48474
    16.38300        48477        48472        48480        48476        48478
    16.40000        48477        48488        48485        48478        48493
    16.41700        48500        48497        48510        48500        48508
    16.43300        48521        48502        48514        48514        48514
    16.45000        48508        48524        48524        48528        48534
    16.46700        48538        48532        48530        48537        48536
    16.48300        48533        48537        48544        48541        48541
    16.50000        48548        48545        48550        48552        48552
    16.51700        48565        48556        48557        48569        48562
    16.53300        48557        48574        48578        48570        48569
    16.55000        48584        48578        48576        48578        48586
    16.56700        48580        48580        48580        48582        48578
    16.58300        48582        48582        48586        48588        48592
    16.60000        48594        48597        48588        48585        48588
    16.61700        48589        48586        48586        48593        48586
    16.63300        48581        48580        48588        48592        48589
    16.65000        48578        48588        48586        48584        48581
    16.66700        48578        48581        48584        48586        48576
    16.68300        48569        48574        48574        48576        48574
    16.70000        48574        48578        48565        48565        48566
    16.71700        48570        48572        48557        48562        48560
    16.73300        48566        48564        48562        48556        48561
    16.75000        48562        48550        48548        48553        48556
    16.76700        48550        48557        48545        48546        48540
    16.78300        48537        48544        48534        48554        48540
    16.80000        48533        48532        48537        48537        48529
    16.81700        48526        48533        48521        48528        48521
    16.83300        48516        48518        48510        48512        48513
    16.85000        48513        48510        48502        48501        48500
    16.86700        48493        48512        48506        48496        48493
    16.88300        48481        48494        48477        48490        48489
    16.90000        48478        48481        48477        48480        48474
    16.91700        48468        48465        48465        48468        48465
    16.93300        48465        48465        48446        48460        48461
    16.95000        48456        48464        48458        48450        48456
    16.96700        48452        48456        48450        48458        48448
    16.98300        48442        48448        48454        48453        48433
    17.00000        48442        48448        48442        48436        48440
    17.01700        48434        48440        48434        48441        48434
    17.03300        48438        48426        48432        48425        48433
    17.05000        48430        48425        48422        48422        48420
    17.06700        48421        48414        48414        48418        48420
    17.08300        48408        48409        48405        48408        48409
    17.10000        48409        48408        48405        48401        48404
    17.11700        48404        48406        48402        48404        48402
    17.13300        48400        48394        48402        48396        48397
    17.15000        48393        48397        48396        48398        48398
    17.16700        48392        48392        48396        48392        48389
    17.18300        48390        48386        48386        48394        48384
    17.20000        48389        48393        48384        48388        48392
    17.21700        48388        48385        48393        48393        48386
    17.23300        48385        48388        48384        48394        48382
    17.25000        48396        48384        48382        48388        48389
    17.26700        48392        48396        48382        48386        48384
    17.28300        48381        48389        48386        48390        48386
    17.30000        48377        48386        48385        48384        48389
    17.31700        48380        48380        48384        48385        48377
    17.33300        48380        48378        48381        48380        48381
    17.35000        48386        48374        48377        48384        48381
    17.36700        48377        48385        48377        48369        48364
    17.38300        48373        48377        48369        48381        48372
    17.40000        48364        48376        48370        48366        48368
    17.41700        48373        48362        48369        48369        48365
    17.43300        48374        48372        48365        48369        48366
    17.45000        48362        48358        48362        48368        48372
    17.46700        48358        48356        48366        48361        48361
    17.48300        48354        48358        48357        48352        48357
    17.50000        48356        48356        48354        48358        48354
    17.51700        48354        48356        48353        48358        48356
    17.53300        48356        48354        48353        48352        48348
    17.55000        48357        48349        48353        48346        48353
    17.56700        48354        48346        48345        48341        48352
    17.58300        48344        48348        48350        48341        48338
    17.60000        48353        48356        48338        48338        48345
    17.61700        48345        48340        48342        48338        48340
    17.63300        48341        48341        48342        48345        48356
    17.65000        48352        48340        48342        48350        48345
    17.66700        48353        48340        48346        48340        48344
    17.68300        48352        48350        48349        48342        48349
    17.70000        48344        48334        48346        48348        48349
    17.71700        48342        48356        48358        48353        48356
    17.73300        48346        48358        48364        48356        48356
    17.75000        48354        48357        48356        48356        48361
    17.76700        48365        48358        48357        48362        48370
    17.78300        48372        48377        48376        48381        48378
    17.80000        48389        48388        48378        48381        48394
    17.81700        48394        48393        48392        48397        48388
    17.83300        48390        48389        48394        48398        48401
    17.85000        48406        48402        48404        48416        48402
    17.86700        48406        48410        48414        48409        48402
    17.88300        48404        48406        48400        48404        48402
    17.90000        48401        48400        48397        48404        48404
    17.91700        48398        48398        48397        48396        48394
    17.93300        48390        48404        48385        48396        48398
    17.95000        48393        48389        48392        48396        48386
    17.96700        48385        48385        48380        48380        48374
    17.98300        48377        48381        48376        48382        48366
    18.00000        48378        48365        48376        48370        48361
    18.01700        48358        48358        48361        48365        48373
    18.03300        48361        48372        48356        48362        48369
    18.05000        48356        48356        48365        48365        48358
    18.06700        48370        48360        48356        48366        48364
    18.08300        48356        48357        48356        48360        48364
    18.10000        48361        48357        48358        48358        48354
    18.11700        48353        48357        48354        48356        48346
    18.13300        48350        48356        48360        48348        48353
    18.15000        48357        48354        48358        48346        48348
    18.16700        48342        48346        48346        48344        48340
    18.18300        48353        48338        48338        48340        48337
    18.20000        48342        48344        48338        48356        48344
    18.21700        48346        48337        48340        48333        48353
    18.23300        48340        48349        48342        48332        48341
    18.25000        48348        48342        48334        48338        48344
    18.26700        48350        48338        48340        48344        48336
    18.28300        48340        48345        48338        48338        48341
    18.30000        48344        48348        48349        48341        48328
    18.31700        48329        48333        48333        48344        48330
    18.33300        48337        48329        48333        48346        48342
    18.35000        48341        48340        48342        48338        48340
    18.36700        48330        48330        48337        48334        48338
    18.38300        48346        48328        48330        48336        48340
    18.40000        48334        48333        48337        48341        48342
    18.41700        48337        48345        48333        48330        48334
    18.43300        48337        48340        48344        48340        48334
    18.45000        48333        48337        48326        48336        48333
    18.46700        48330        48329        48328        48332        48336
    18.48300        48333        48332        48336        48328        48328
    18.50000        48332        48337        48333        48322        48329
    18.51700        48328        48338        48324        48341        48333
    18.53300        48333        48329        48329        48332        48321
    18.55000        48329        48325        48326        48325        48324
    18.56700        48320        48329        48326        48333        48342
    18.58300        48338        48336        48328        48336        48325
    18.60000        48337        48329        48333        48332        48330
    18.61700        48328        48334        48322        48332        48337
    18.63300        48336        48334        48336        48333        48342
    18.65000        48336        48313        48329        48329        48330
    18.66700        48325        48328        48334        48337        48330
    18.68300        48328        48324        48334        48334        48334
    18.70000        48341        48334        48334        48334        48336
    18.71700        48328        48332        48333        48338        48326
    18.73300        48333        48341        48341        48328        48346
    18.75000        48337        48338        48342        48342        48340
    18.76700        48337        48330        48337        48326        48342
    18.78300        48333        48336        48333        48330        48336
    18.80000        48336        48334        48333        48333        48325
    18.81700        48342        48325        48334        48333        48336
    18.83300        48336        48336        48334        48336        48336
    18.85000        48329        48329        48336        48341        48332
    18.86700        48333        48337        48336        48334        48332
    18.88300        48336        48340        48329        48350        48337
    18.90000        48328        48346        48342        48338        48336
    18.91700        48332        48333        48336        48340        48325
    18.93300        48333        48337        48332        48334        48336
    18.95000        48333        48337        48328        48341        48336
    18.96700        48332        48322        48325        48332        48336
    18.98300        48334        48342        48338        48333        48322
    19.00000        48330        48337        48332        48333        48329
    19.01700        48334        48329        48341        48337        48334
    19.03300        48325        48328        48329        48328        48325
    19.05000        48333        48330        48330        48342        48336
    19.06700        48336        48324        48330        48330        48332
    19.08300        48325        48336        48330        48321        48326
    19.10000        48329        48330        48328        48330        48333
    19.11700        48328        48334        48333        48329        48330
    19.13300        48344        48338        48333        48340        48340
    19.15000        48344        48337        48349        48334        48341
    19.16700        48344        48334        48348        48344        48342
    19.18300        48344        48340        48337        48349        48350
    19.20000        48345        48341        48352        48356        48356
    19.21700        48354        48341        48345        48345        48354
    19.23300        48353        48358        48354        48354        48342
    19.25000        48360        48366        48356        48353        48348
    19.26700        48354        48366        48360        48356        48358
    19.28300        48370        48356        48365        48369        48357
    19.30000        48357        48354        48357        48368        48360
    19.31700        48357        48352        48341        48356        48358
    19.33300        48361        48366        48356        48353        48357
    19.35000        48358        48356        48357        48354        48356
    19.36700        48357        48352        48356        48356        48352
    19.38300        48349        48362        48349        48361        48345
    19.40000        48353        48358        48350        48349        48346
    19.41700        48345        48352        48344        48354        48345
    19.43300        48344        48345        48344        48349        48341
    19.45000        48338        48337        48340        48336        48338
    19.46700        48340        48329        48337        48345        48332
    19.48300        48330        48330        48328        48346        48330
    19.50000        48334        48333        48326        48334        48330
    19.51700        48332        48337        48332        48330        48342
    19.53300        48325        48342        48338        48325        48328
    19.55000        48324        48332        48329        48329        48329
    19.56700        48326        48329        48326        48326        48330
    19.58300        48330        48330        48333        48320        48325
    19.60000        48330        48334        48336        48325        48338
    19.61700        48333        48328        48326        48330        48329
    19.63300        48336        48329        48325        48330        48333
    19.65000        48322        48333        48336        48332        48326
    19.66700        48342        48332        48338        48336        48338
    19.68300        48328        48338        48341        48328        48334
    19.70000        48338        48332        48325        48334        48317
    19.71700        48332        48330        48328        48336        48336
    19.73300        48338        48333        48324        48328        48330
    19.75000        48330        48333        48336        48328        48332
    19.76700        48333        48333        48328        48329        48332
    19.78300        48324        48332        48325        48334        48330
    19.80000        48337        48321        48329        48322        48324
    19.81700        48330        48326        48334        48324        48333
    19.83300        48329        48329        48326        48330        48320
    19.85000        48326        48322        48329        48324        48333
    19.86700        48325        48332        48332        48329        48325
    19.88300        48328        48325        48326        48318        48328
    19.90000        48328        48325        48316        48318        48312
    19.91700        48325        48317        48322        48313        48324
    19.93300        48317        48325        48324        48316        48314
    19.95000        48320        48324        48317        48310        48322
    19.96700        48326        48320        48322        48318        48322
    19.98300        48321        48317        48325        48329        48321
    19.99700        48321        48317        48318        48314
##END= 
