##TITLE= Headspace from cinnamon stick
##JCAMP-DX= 4.24
##DATA TYPE= GAS CHROMATOGRAPH
##$ASDF TYPE= FIX
##ORIGIN= HP 5890 GC TABULATED file
##OWNER= Dept of Chem, UWI, Mona, JAMAICA
##DATE= 11-26-1995
##TIME= 08:53:25
##NPOINTS=   6001
##XUNITS= TIME
##YUNITS= ARBITRARY
##FIRSTX=      0.00000
##LASTX=     20.00000
##XFACTOR= 1.0
##YFACTOR= 1.0
##FIRSTY=      48453
##MAXY=      51817
##MINY=      47922
##XYDATA= (X++(Y..Y))
     0.00000        48453        48444        48446        48442        48444
     0.01700        48452        48454        48436        48437        48442
     0.03300        48442        48438        48438        48441        48442
     0.05000        48436        48436        48432        48437        48445
     0.06700        48442        48438        48432        48429        48442
     0.08300        48446        48425        48434        48430        48444
     0.10000        48436        48426        48433        48430        48433
     0.11700        48434        48433        48433        48416        48420
     0.13300        48416        48413        48428        48420        48424
     0.15000        48421        48413        48425        48432        48421
     0.16700        48418        48424        48424        48433        48420
     0.18300        48424        48424        48413        48421        48414
     0.20000        48420        48421        48424        48420        48420
     0.21700        48421        48414        48425        48422        48422
     0.23300        48420        48418        48406        48425        48421
     0.25000        48412        48420        48412        48408        48418
     0.26700        48413        48414        48410        48406        48413
     0.28300        48412        48408        48413        48409        48409
     0.30000        48406        48412        48413        48406        48410
     0.31700        48408        48401        48405        48405        48413
     0.33300        48404        48405        48405        48402        48400
     0.35000        48406        48410        48390        48400        48405
     0.36700        48408        48406        48393        48405        48405
     0.38300        48394        48404        48409        48402        48406
     0.40000        48406        48402        48404        48402        48398
     0.41700        48404        48401        48401        48393        48404
     0.43300        48401        48396        48406        48405        48400
     0.45000        48408        48422        48409        48390        48381
     0.46700        48392        48396        48390        48405        48390
     0.48300        48397        48388        48385        48388        48397
     0.50000        48397        48392        48394        48394        48389
     0.51700        48389        48396        48396        48396        48401
     0.53300        48389        48390        48388        48401        48388
     0.55000        48397        48393        48389        48396        48390
     0.56700        48393        48396        48384        48397        48390
     0.58300        48394        48400        48392        48386        48385
     0.60000        48389        48390        48377        48389        48389
     0.61700        48386        48389        48392        48392        48393
     0.63300        48388        48382        48382        48377        48384
     0.65000        48388        48388        48380        48380        48385
     0.66700        48380        48389        48384        48386        48382
     0.68300        48380        48390        48388        48382        48382
     0.70000        48388        48385        48378        48388        48393
     0.71700        48390        48385        48396        48384        48390
     0.73300        48397        48396        48393        48392        48400
     0.75000        48409        48392        48388        48402        48390
     0.76700        48394        48393        48392        48389        48397
     0.78300        48405        48396        48401        48400        48398
     0.80000        48401        48397        48385        48389        48392
     0.81700        48398        48392        48393        48397        48400
     0.83300        48390        48398        48389        48385        48389
     0.85000        48394        48408        48396        48396        48402
     0.86700        48396        48401        48402        48388        48402
     0.88300        48397        48402        48397        48398        48396
     0.90000        48393        48394        48408        48398        48398
     0.91700        48398        48398        48402        48405        48401
     0.93300        48412        48398        48396        48393        48396
     0.95000        48402        48396        48402        48388        48392
     0.96700        48401        48404        48397        48394        48400
     0.98300        48398        48404        48405        48396        48402
     1.00000        48406        48393        48404        48401        48398
     1.01700        48402        48393        48405        48405        48402
     1.03300        48405        48397        48406        48402        48396
     1.05000        48406        48401        48404        48398        48400
     1.06700        48401        48406        48412        48394        48402
     1.08300        48398        48397        48401        48406        48401
     1.10000        48397        48409        48402        48405        48400
     1.11700        48397        48402        48396        48400        48396
     1.13300        48398        48397        48398        48406        48400
     1.15000        48402        48408        48402        48394        48401
     1.16700        48402        48397        48400        48400        48402
     1.18300        48401        48408        48398        48394        48408
     1.20000        48400        48398        48393        48390        48404
     1.21700        48406        48402        48404        48398        48416
     1.23300        48414        48406        48393        48397        48401
     1.25000        48398        48408        48405        48413        48406
     1.26700        48422        48401        48406        48404        48400
     1.28300        48402        48389        48398        48404        48401
     1.30000        48397        48397        48400        48404        48396
     1.31700        48401        48410        48412        48410        48401
     1.33300        48414        48408        48412        48412        48413
     1.35000        48414        48413        48409        48418        48409
     1.36700        48417        48425        48441        48440        48440
     1.38300        48468        48478        48502        48529        48554
     1.40000        48592        48626        48666        48713        48766
     1.41700        48790        48850        48904        48949        49002
     1.43300        49036        49078        49119        49162        49207
     1.45000        49251        49275        49291        49325        49351
     1.46700        49373        49389        49405        49422        49439
     1.48300        49441        49454        49462        49461        49459
     1.50000        49473        49462        49463        49461        49449
     1.51700        49445        49445        49427        49415        49414
     1.53300        49390        49385        49359        49357        49345
     1.55000        49341        49313        49299        49294        49270
     1.56700        49255        49245        49229        49209        49190
     1.58300        49181        49165        49157        49154        49135
     1.60000        49123        49103        49103        49090        49086
     1.61700        49077        49077        49065        49050        49057
     1.63300        49058        49048        49037        49044        49050
     1.65000        49033        49030        49021        49020        49014
     1.66700        49014        49004        49001        49000        49000
     1.68300        48985        48984        48993        48961        48962
     1.70000        48958        48948        48940        48937        48934
     1.71700        48925        48914        48913        48916        48906
     1.73300        48900        48889        48881        48882        48876
     1.75000        48878        48870        48865        48869        48848
     1.76700        48856        48856        48858        48856        48852
     1.78300        48848        48849        48841        48840        48844
     1.80000        48841        48844        48841        48832        48837
     1.81700        48836        48845        48828        48830        48837
     1.83300        48834        48822        48818        48812        48820
     1.85000        48808        48804        48792        48800        48797
     1.86700        48789        48785        48777        48781        48777
     1.88300        48760        48761        48764        48752        48756
     1.90000        48745        48741        48745        48732        48732
     1.91700        48726        48720        48721        48705        48702
     1.93300        48694        48694        48689        48685        48678
     1.95000        48674        48669        48674        48654        48653
     1.96700        48658        48645        48630        48625        48618
     1.98300        48618        48610        48600        48596        48597
     2.00000        48598        48588        48592        48580        48592
     2.01700        48581        48589        48582        48573        48577
     2.03300        48576        48572        48576        48577        48572
     2.05000        48565        48574        48574        48565        48569
     2.06700        48578        48581        48564        48572        48564
     2.08300        48560        48569        48562        48560        48557
     2.10000        48561        48553        48550        48546        48554
     2.11700        48546        48550        48546        48544        48534
     2.13300        48542        48532        48540        48534        48536
     2.15000        48538        48532        48530        48521        48521
     2.16700        48524        48521        48520        48514        48525
     2.18300        48518        48510        48518        48508        48514
     2.20000        48512        48516        48508        48508        48502
     2.21700        48498        48500        48504        48497        48502
     2.23300        48496        48505        48502        48492        48506
     2.25000        48497        48497        48488        48494        48501
     2.26700        48492        48494        48478        48460        48445
     2.28300        48377        48321        48280        48248        48210
     2.30000        48184        48180        48177        48176        48174
     2.31700        48170        48168        48174        48165        48174
     2.33300        48162        48177        48173        48169        48168
     2.35000        48173        48164        48178        48169        48172
     2.36700        48177        48180        48169        48169        48174
     2.38300        48170        48169        48173        48176        48176
     2.40000        48184        48174        48193        48184        48173
     2.41700        48177        48176        48172        48182        48188
     2.43300        48172        48176        48174        48176        48186
     2.45000        48188        48180        48164        48178        48176
     2.46700        48176        48172        48164        48174        48165
     2.48300        48162        48169        48176        48164        48166
     2.50000        48170        48168        48178        48154        48166
     2.51700        48160        48164        48161        48156        48157
     2.53300        48157        48150        48150        48149        48157
     2.55000        48149        48162        48149        48150        48144
     2.56700        48146        48153        48146        48141        48148
     2.58300        48149        48141        48142        48138        48138
     2.60000        48144        48141        48145        48140        48144
     2.61700        48136        48137        48140        48134        48136
     2.63300        48133        48128        48132        48140        48133
     2.65000        48134        48136        48137        48130        48129
     2.66700        48124        48132        48128        48122        48128
     2.68300        48121        48113        48118        48100        48118
     2.70000        48108        48102        48112        48108        48100
     2.71700        48105        48113        48102        48117        48104
     2.73300        48108        48113        48116        48116        48114
     2.75000        48102        48110        48110        48120        48113
     2.76700        48117        48114        48122        48117        48118
     2.78300        48105        48120        48117        48112        48118
     2.80000        48120        48110        48116        48112        48124
     2.81700        48114        48118        48110        48116        48113
     2.83300        48118        48120        48120        48114        48110
     2.85000        48108        48113        48113        48114        48114
     2.86700        48110        48108        48102        48113        48116
     2.88300        48109        48113        48110        48125        48118
     2.90000        48130        48110        48120        48112        48114
     2.91700        48112        48105        48120        48118        48122
     2.93300        48117        48120        48120        48118        48126
     2.95000        48126        48125        48125        48120        48126
     2.96700        48122        48124        48118        48114        48121
     2.98300        48105        48116        48112        48110        48106
     3.00000        48110        48117        48112        48118        48114
     3.01700        48113        48113        48117        48117        48102
     3.03300        48112        48110        48118        48114        48124
     3.05000        48116        48116        48121        48120        48110
     3.06700        48098        48109        48118        48109        48113
     3.08300        48096        48104        48108        48108        48100
     3.10000        48104        48108        48106        48105        48108
     3.11700        48108        48101        48106        48100        48112
     3.13300        48105        48108        48113        48094        48105
     3.15000        48106        48102        48106        48102        48108
     3.16700        48106        48110        48106        48101        48109
     3.18300        48117        48109        48113        48113        48105
     3.20000        48108        48114        48112        48108        48116
     3.21700        48112        48116        48113        48112        48110
     3.23300        48116        48112        48116        48105        48114
     3.25000        48106        48109        48112        48109        48101
     3.26700        48102        48097        48096        48098        48094
     3.28300        48096        48089        48090        48097        48104
     3.30000        48090        48093        48101        48094        48088
     3.31700        48092        48089        48080        48081        48085
     3.33300        48086        48086        48084        48086        48076
     3.35000        48081        48082        48081        48074        48086
     3.36700        48077        48076        48085        48074        48088
     3.38300        48074        48078        48078        48085        48077
     3.40000        48080        48082        48078        48070        48080
     3.41700        48082        48072        48076        48076        48080
     3.43300        48078        48070        48078        48081        48094
     3.45000        48089        48096        48089        48085        48093
     3.46700        48098        48101        48113        48098        48114
     3.48300        48117        48118        48124        48132        48137
     3.50000        48138        48134        48133        48154        48148
     3.51700        48153        48158        48162        48158        48158
     3.53300        48158        48165        48166        48166        48177
     3.55000        48169        48174        48170        48181        48169
     3.56700        48178        48178        48165        48173        48184
     3.58300        48176        48160        48168        48166        48169
     3.60000        48162        48157        48162        48152        48146
     3.61700        48148        48156        48148        48146        48144
     3.63300        48141        48148        48150        48134        48140
     3.65000        48141        48141        48133        48133        48133
     3.66700        48133        48132        48124        48122        48129
     3.68300        48126        48125        48116        48117        48112
     3.70000        48109        48106        48101        48094        48101
     3.71700        48092        48082        48094        48086        48100
     3.73300        48077        48088        48085        48076        48081
     3.75000        48073        48080        48076        48078        48077
     3.76700        48074        48088        48069        48078        48078
     3.78300        48076        48080        48072        48076        48076
     3.80000        48069        48082        48076        48070        48076
     3.81700        48074        48085        48074        48084        48085
     3.83300        48077        48080        48084        48081        48088
     3.85000        48081        48088        48076        48081        48074
     3.86700        48081        48072        48074        48081        48082
     3.88300        48085        48074        48077        48076        48074
     3.90000        48074        48086        48078        48070        48082
     3.91700        48084        48086        48080        48080        48086
     3.93300        48081        48085        48078        48085        48088
     3.95000        48081        48089        48081        48084        48093
     3.96700        48088        48088        48085        48084        48086
     3.98300        48086        48096        48090        48097        48085
     4.00000        48094        48096        48098        48085        48093
     4.01700        48092        48101        48084        48097        48097
     4.03300        48092        48096        48098        48101        48105
     4.05000        48104        48106        48112        48106        48112
     4.06700        48106        48106        48113        48116        48125
     4.08300        48120        48128        48126        48134        48148
     4.10000        48138        48137        48150        48158        48164
     4.11700        48173        48178        48180        48204        48204
     4.13300        48220        48218        48232        48256        48270
     4.15000        48277        48286        48294        48297        48324
     4.16700        48313        48336        48332        48341        48349
     4.18300        48368        48362        48369        48370        48386
     4.20000        48380        48386        48382        48386        48386
     4.21700        48388        48378        48389        48382        48384
     4.23300        48390        48373        48376        48382        48374
     4.25000        48378        48373        48373        48380        48364
     4.26700        48374        48369        48369        48372        48376
     4.28300        48388        48388        48392        48405        48417
     4.30000        48422        48438        48441        48456        48481
     4.31700        48494        48508        48518        48533        48556
     4.33300        48566        48576        48589        48605        48613
     4.35000        48624        48634        48642        48646        48649
     4.36700        48648        48660        48658        48661        48656
     4.38300        48661        48654        48662        48652        48660
     4.40000        48642        48642        48628        48625        48613
     4.41700        48605        48589        48570        48577        48556
     4.43300        48549        48541        48526        48514        48502
     4.45000        48493        48489        48470        48461        48444
     4.46700        48442        48430        48418        48409        48404
     4.48300        48381        48380        48358        48354        48342
     4.50000        48333        48324        48321        48309        48302
     4.51700        48296        48285        48268        48264        48260
     4.53300        48256        48245        48246        48233        48242
     4.55000        48224        48229        48208        48209        48206
     4.56700        48202        48200        48193        48189        48177
     4.58300        48177        48173        48169        48172        48170
     4.60000        48162        48153        48157        48153        48154
     4.61700        48150        48156        48156        48149        48156
     4.63300        48154        48158        48157        48165        48160
     4.65000        48166        48180        48181        48181        48190
     4.66700        48201        48201        48214        48213        48230
     4.68300        48228        48248        48250        48256        48266
     4.70000        48262        48270        48284        48308        48292
     4.71700        48294        48308        48310        48309        48310
     4.73300        48309        48313        48314        48314        48318
     4.75000        48321        48318        48306        48316        48304
     4.76700        48306        48302        48304        48296        48294
     4.78300        48289        48278        48270        48278        48265
     4.80000        48273        48254        48257        48257        48245
     4.81700        48244        48234        48226        48225        48229
     4.83300        48208        48214        48216        48206        48200
     4.85000        48198        48194        48190        48188        48180
     4.86700        48178        48189        48174        48168        48158
     4.88300        48166        48162        48161        48152        48152
     4.90000        48153        48158        48146        48149        48140
     4.91700        48133        48138        48140        48137        48129
     4.93300        48137        48134        48133        48122        48122
     4.95000        48125        48137        48121        48130        48130
     4.96700        48118        48128        48126        48141        48134
     4.98300        48141        48133        48133        48136        48136
     5.00000        48134        48144        48138        48141        48148
     5.01700        48130        48130        48140        48145        48141
     5.03300        48137        48141        48145        48137        48141
     5.05000        48138        48128        48125        48121        48132
     5.06700        48133        48136        48132        48133        48120
     5.08300        48128        48133        48129        48120        48122
     5.10000        48125        48124        48122        48112        48114
     5.11700        48117        48117        48117        48106        48105
     5.13300        48110        48102        48104        48104        48105
     5.15000        48096        48108        48101        48104        48094
     5.16700        48086        48090        48088        48089        48093
     5.18300        48081        48085        48084        48081        48090
     5.20000        48088        48085        48082        48081        48080
     5.21700        48078        48084        48082        48088        48080
     5.23300        48078        48076        48078        48080        48084
     5.25000        48080        48077        48076        48073        48074
     5.26700        48068        48086        48088        48081        48077
     5.28300        48077        48076        48077        48092        48081
     5.30000        48085        48089        48089        48084        48084
     5.31700        48093        48090        48081        48094        48090
     5.33300        48089        48097        48097        48093        48096
     5.35000        48097        48089        48102        48097        48102
     5.36700        48100        48109        48105        48106        48106
     5.38300        48116        48116        48114        48124        48117
     5.40000        48130        48132        48133        48136        48156
     5.41700        48141        48146        48156        48165        48176
     5.43300        48176        48184        48178        48181        48194
     5.45000        48197        48205        48206        48209        48216
     5.46700        48213        48217        48218        48220        48225
     5.48300        48225        48226        48230        48233        48220
     5.50000        48216        48230        48224        48229        48222
     5.51700        48221        48228        48224        48213        48217
     5.53300        48220        48214        48201        48209        48205
     5.55000        48198        48193        48192        48178        48182
     5.56700        48182        48184        48173        48182        48172
     5.58300        48158        48168        48165        48162        48145
     5.60000        48152        48149        48156        48144        48136
     5.61700        48141        48129        48144        48128        48128
     5.63300        48129        48125        48118        48117        48117
     5.65000        48110        48121        48110        48104        48104
     5.66700        48102        48104        48098        48096        48101
     5.68300        48102        48084        48089        48097        48089
     5.70000        48096        48094        48090        48088        48094
     5.71700        48081        48077        48092        48085        48088
     5.73300        48080        48082        48084        48070        48077
     5.75000        48073        48080        48085        48080        48080
     5.76700        48081        48080        48077        48085        48093
     5.78300        48090        48081        48082        48085        48080
     5.80000        48086        48088        48084        48085        48086
     5.81700        48090        48082        48085        48089        48088
     5.83300        48086        48097        48096        48096        48093
     5.85000        48093        48089        48092        48096        48093
     5.86700        48101        48110        48093        48097        48112
     5.88300        48106        48108        48108        48098        48098
     5.90000        48096        48098        48102        48097        48104
     5.91700        48096        48108        48104        48114        48101
     5.93300        48096        48098        48092        48101        48088
     5.95000        48097        48097        48089        48097        48092
     5.96700        48093        48086        48098        48092        48090
     5.98300        48094        48085        48086        48093        48080
     6.00000        48086        48085        48078        48085        48077
     6.01700        48080        48081        48082        48069        48076
     6.03300        48076        48080        48082        48077        48084
     6.05000        48076        48072        48081        48077        48082
     6.06700        48074        48084        48076        48082        48084
     6.08300        48089        48078        48078        48081        48080
     6.10000        48082        48080        48086        48081        48073
     6.11700        48090        48082        48081        48082        48080
     6.13300        48078        48082        48085        48088        48092
     6.15000        48088        48090        48089        48097        48097
     6.16700        48096        48106        48100        48110        48110
     6.18300        48112        48102        48104        48108        48114
     6.20000        48116        48113        48110        48110        48110
     6.21700        48109        48109        48114        48116        48105
     6.23300        48113        48117        48114        48106        48114
     6.25000        48098        48106        48102        48104        48102
     6.26700        48118        48114        48104        48100        48105
     6.28300        48116        48109        48110        48112        48112
     6.30000        48106        48113        48121        48117        48121
     6.31700        48122        48120        48132        48132        48136
     6.33300        48134        48136        48141        48126        48145
     6.35000        48141        48138        48142        48148        48140
     6.36700        48137        48149        48146        48144        48138
     6.38300        48141        48148        48137        48138        48149
     6.40000        48144        48136        48140        48146        48144
     6.41700        48146        48146        48140        48133        48140
     6.43300        48141        48140        48146        48136        48138
     6.45000        48130        48129        48134        48133        48118
     6.46700        48126        48124        48138        48128        48120
     6.48300        48128        48122        48112        48120        48118
     6.50000        48114        48113        48114        48113        48113
     6.51700        48110        48113        48114        48122        48113
     6.53300        48110        48106        48100        48106        48105
     6.55000        48116        48112        48110        48112        48108
     6.56700        48097        48100        48116        48100        48104
     6.58300        48108        48112        48117        48110        48114
     6.60000        48120        48106        48109        48110        48109
     6.61700        48113        48113        48108        48112        48108
     6.63300        48101        48117        48117        48110        48124
     6.65000        48114        48112        48121        48124        48117
     6.66700        48112        48109        48116        48110        48112
     6.68300        48114        48116        48100        48118        48117
     6.70000        48105        48105        48108        48113        48113
     6.71700        48108        48106        48098        48116        48108
     6.73300        48100        48110        48109        48104        48112
     6.75000        48110        48113        48113        48109        48118
     6.76700        48126        48124        48116        48129        48126
     6.78300        48132        48134        48144        48141        48154
     6.80000        48150        48152        48154        48160        48153
     6.81700        48149        48154        48164        48164        48172
     6.83300        48165        48164        48166        48174        48174
     6.85000        48177        48173        48162        48173        48176
     6.86700        48173        48177        48172        48161        48161
     6.88300        48166        48166        48169        48158        48156
     6.90000        48161        48160        48154        48154        48152
     6.91700        48146        48152        48149        48157        48144
     6.93300        48138        48144        48138        48126        48133
     6.95000        48128        48130        48125        48117        48121
     6.96700        48116        48109        48106        48108        48108
     6.98300        48116        48108        48110        48104        48098
     7.00000        48094        48084        48101        48090        48100
     7.01700        48089        48102        48084        48092        48096
     7.03300        48096        48088        48101        48100        48110
     7.05000        48116        48120        48124        48125        48144
     7.06700        48144        48165        48190        48200        48218
     7.08300        48241        48264        48285        48328        48348
     7.10000        48380        48420        48452        48489        48518
     7.11700        48541        48596        48634        48660        48698
     7.13300        48738        48782        48822        48849        48892
     7.15000        48909        48953        48972        48998        49030
     7.16700        49054        49072        49089        49105        49111
     7.18300        49127        49139        49146        49147        49143
     7.20000        49149        49145        49147        49133        49130
     7.21700        49117        49119        49105        49097        49097
     7.23300        49091        49087        49086        49091        49074
     7.25000        49087        49105        49113        49129        49149
     7.26700        49174        49211        49245        49294        49354
     7.28300        49414        49463        49539        49606        49681
     7.30000        49785        49873        49966        50058        50159
     7.31700        50270        50361        50469        50583        50689
     7.33300        50785        50886        50983        51073        51174
     7.35000        51250        51345        51430        51495        51549
     7.36700        51606        51665        51705        51737        51773
     7.38300        51789        51805        51817        51817        51809
     7.40000        51794        51766        51741        51715        51687
     7.41700        51638        51597        51545        51481        51434
     7.43300        51375        51322        51250        51182        51114
     7.45000        51033        50958        50894        50821        50750
     7.46700        50670        50591        50530        50450        50375
     7.48300        50305        50234        50170        50093        50038
     7.50000        49970        49909        49853        49787        49739
     7.51700        49689        49617        49562        49505        49463
     7.53300        49425        49363        49322        49273        49237
     7.55000        49187        49141        49098        49066        49029
     7.56700        48993        48954        48922        48896        48861
     7.58300        48838        48805        48782        48750        48725
     7.60000        48700        48678        48644        48618        48597
     7.61700        48573        48557        48536        48512        48498
     7.63300        48478        48461        48448        48436        48422
     7.65000        48405        48388        48377        48378        48364
     7.66700        48354        48336        48318        48316        48316
     7.68300        48286        48281        48282        48280        48261
     7.70000        48262        48256        48250        48252        48224
     7.71700        48221        48221        48212        48209        48206
     7.73300        48201        48197        48193        48190        48186
     7.75000        48180        48181        48172        48181        48174
     7.76700        48172        48161        48166        48160        48154
     7.78300        48150        48162        48146        48144        48141
     7.80000        48140        48133        48142        48126        48124
     7.81700        48124        48122        48124        48124        48116
     7.83300        48116        48112        48106        48117        48098
     7.85000        48106        48106        48104        48098        48094
     7.86700        48106        48098        48092        48092        48101
     7.88300        48096        48096        48101        48093        48098
     7.90000        48097        48080        48092        48092        48089
     7.91700        48096        48084        48085        48084        48080
     7.93300        48082        48077        48084        48088        48085
     7.95000        48081        48068        48070        48074        48070
     7.96700        48074        48074        48076        48068        48074
     7.98300        48074        48072        48070        48078        48082
     8.00000        48076        48066        48076        48072        48080
     8.01700        48070        48065        48074        48058        48073
     8.03300        48065        48060        48057        48078        48068
     8.05000        48064        48073        48084        48064        48065
     8.06700        48062        48061        48061        48065        48064
     8.08300        48066        48066        48068        48061        48060
     8.10000        48054        48061        48065        48062        48060
     8.11700        48064        48061        48073        48065        48074
     8.13300        48058        48074        48069        48070        48066
     8.15000        48080        48074        48061        48073        48069
     8.16700        48068        48076        48064        48056        48076
     8.18300        48064        48070        48068        48068        48070
     8.20000        48065        48066        48060        48061        48061
     8.21700        48064        48065        48065        48066        48062
     8.23300        48068        48061        48052        48066        48069
     8.25000        48062        48066        48070        48069        48064
     8.26700        48068        48068        48069        48074        48064
     8.28300        48074        48069        48073        48076        48080
     8.30000        48073        48080        48072        48081        48084
     8.31700        48074        48078        48080        48076        48077
     8.33300        48074        48084        48076        48084        48081
     8.35000        48088        48085        48096        48085        48081
     8.36700        48069        48084        48073        48081        48088
     8.38300        48076        48074        48081        48077        48073
     8.40000        48074        48065        48074        48072        48080
     8.41700        48073        48073        48078        48076        48070
     8.43300        48078        48069        48069        48073        48061
     8.45000        48072        48060        48068        48070        48077
     8.46700        48065        48077        48076        48073        48062
     8.48300        48069        48070        48072        48062        48070
     8.50000        48070        48061        48068        48066        48060
     8.51700        48080        48070        48061        48064        48068
     8.53300        48072        48064        48058        48068        48070
     8.55000        48070        48058        48064        48061        48068
     8.56700        48073        48060        48056        48062        48064
     8.58300        48061        48057        48054        48050        48062
     8.60000        48066        48061        48048        48060        48046
     8.61700        48048        48056        48056        48054        48053
     8.63300        48056        48058        48056        48052        48058
     8.65000        48050        48052        48056        48050        48045
     8.66700        48058        48050        48048        48060        48048
     8.68300        48044        48046        48046        48045        48042
     8.70000        48049        48045        48046        48045        48049
     8.71700        48038        48037        48054        48049        48048
     8.73300        48042        48046        48049        48058        48045
     8.75000        48048        48054        48049        48052        48049
     8.76700        48054        48053        48065        48064        48046
     8.78300        48064        48057        48058        48077        48062
     8.80000        48065        48066        48057        48061        48065
     8.81700        48058        48065        48064        48072        48065
     8.83300        48069        48072        48080        48056        48069
     8.85000        48072        48078        48073        48068        48072
     8.86700        48076        48070        48068        48068        48069
     8.88300        48068        48073        48073        48068        48064
     8.90000        48064        48076        48077        48065        48066
     8.91700        48060        48064        48049        48062        48064
     8.93300        48058        48056        48064        48061        48057
     8.95000        48054        48054        48053        48045        48054
     8.96700        48058        48048        48064        48057        48049
     8.98300        48057        48038        48049        48048        48041
     9.00000        48041        48046        48038        48034        48046
     9.01700        48040        48038        48046        48034        48036
     9.03300        48036        48038        48034        48032        48038
     9.05000        48041        48030        48028        48042        48026
     9.06700        48030        48040        48045        48026        48038
     9.08300        48030        48033        48033        48024        48024
     9.10000        48021        48042        48028        48038        48029
     9.11700        48030        48037        48034        48033        48034
     9.13300        48030        48032        48034        48026        48033
     9.15000        48040        48029        48040        48032        48036
     9.16700        48028        48026        48029        48029        48028
     9.18300        48030        48020        48034        48028        48036
     9.20000        48032        48034        48030        48028        48029
     9.21700        48041        48036        48033        48029        48045
     9.23300        48032        48030        48034        48046        48040
     9.25000        48044        48042        48036        48046        48045
     9.26700        48046        48044        48044        48045        48036
     9.28300        48040        48042        48044        48040        48037
     9.30000        48045        48046        48042        48045        48046
     9.31700        48045        48045        48044        48056        48054
     9.33300        48048        48048        48045        48048        48060
     9.35000        48046        48034        48048        48036        48056
     9.36700        48053        48052        48056        48053        48052
     9.38300        48053        48040        48052        48049        48050
     9.40000        48052        48054        48052        48046        48050
     9.41700        48054        48058        48046        48061        48048
     9.43300        48052        48058        48048        48054        48054
     9.45000        48062        48046        48057        48060        48056
     9.46700        48064        48052        48062        48052        48056
     9.48300        48052        48061        48064        48058        48053
     9.50000        48062        48064        48056        48060        48060
     9.51700        48056        48057        48062        48061        48052
     9.53300        48062        48048        48062        48050        48057
     9.55000        48041        48054        48062        48046        48052
     9.56700        48056        48052        48053        48053        48053
     9.58300        48044        48056        48061        48050        48048
     9.60000        48057        48056        48058        48061        48052
     9.61700        48053        48066        48057        48054        48057
     9.63300        48061        48054        48058        48064        48048
     9.65000        48056        48056        48062        48060        48054
     9.66700        48058        48064        48064        48060        48061
     9.68300        48065        48057        48064        48049        48069
     9.70000        48058        48064        48066        48064        48072
     9.71700        48061        48074        48069        48064        48069
     9.73300        48064        48068        48065        48077        48066
     9.75000        48066        48062        48060        48070        48070
     9.76700        48072        48076        48076        48068        48078
     9.78300        48073        48076        48084        48078        48078
     9.80000        48078        48076        48081        48073        48084
     9.81700        48082        48089        48092        48085        48096
     9.83300        48086        48085        48085        48086        48094
     9.85000        48092        48090        48093        48102        48097
     9.86700        48098        48093        48098        48102        48096
     9.88300        48097        48094        48112        48102        48114
     9.90000        48096        48101        48094        48097        48108
     9.91700        48108        48109        48112        48116        48109
     9.93300        48112        48104        48116        48121        48126
     9.95000        48112        48114        48118        48117        48117
     9.96700        48109        48113        48132        48124        48130
     9.98300        48109        48112        48128        48116        48118
    10.00000        48120        48118        48114        48120        48117
    10.01700        48121        48121        48116        48125        48121
    10.03300        48121        48130        48130        48124        48129
    10.05000        48126        48129        48125        48118        48118
    10.06700        48128        48130        48129        48125        48129
    10.08300        48128        48134        48136        48140        48124
    10.10000        48134        48133        48128        48130        48134
    10.11700        48144        48140        48140        48141        48142
    10.13300        48152        48150        48146        48140        48152
    10.15000        48144        48144        48161        48149        48145
    10.16700        48144        48154        48150        48150        48150
    10.18300        48145        48149        48149        48152        48153
    10.20000        48146        48156        48146        48149        48150
    10.21700        48152        48146        48148        48148        48152
    10.23300        48146        48149        48150        48154        48149
    10.25000        48149        48149        48145        48153        48145
    10.26700        48152        48142        48149        48148        48149
    10.28300        48149        48144        48154        48152        48153
    10.30000        48150        48152        48144        48153        48148
    10.31700        48150        48142        48152        48149        48152
    10.33300        48142        48154        48157        48149        48144
    10.35000        48154        48162        48145        48153        48154
    10.36700        48145        48146        48146        48153        48153
    10.38300        48157        48161        48150        48157        48164
    10.40000        48154        48154        48154        48152        48162
    10.41700        48153        48158        48164        48152        48152
    10.43300        48162        48164        48162        48164        48162
    10.45000        48166        48158        48156        48153        48169
    10.46700        48165        48166        48156        48152        48160
    10.48300        48160        48153        48156        48157        48150
    10.50000        48152        48150        48149        48146        48154
    10.51700        48144        48154        48148        48144        48154
    10.53300        48156        48142        48158        48150        48145
    10.55000        48148        48149        48148        48149        48146
    10.56700        48132        48140        48145        48142        48137
    10.58300        48146        48137        48137        48145        48134
    10.60000        48134        48136        48136        48140        48132
    10.61700        48134        48140        48125        48144        48125
    10.63300        48129        48129        48122        48144        48128
    10.65000        48136        48134        48134        48148        48141
    10.66700        48133        48134        48136        48142        48142
    10.68300        48141        48141        48138        48142        48144
    10.70000        48141        48150        48140        48142        48141
    10.71700        48149        48141        48138        48142        48148
    10.73300        48136        48134        48146        48146        48156
    10.75000        48142        48152        48149        48148        48152
    10.76700        48142        48142        48154        48150        48153
    10.78300        48154        48146        48153        48150        48157
    10.80000        48141        48152        48148        48148        48156
    10.81700        48153        48150        48146        48152        48156
    10.83300        48148        48153        48152        48161        48162
    10.85000        48149        48152        48148        48145        48150
    10.86700        48164        48156        48150        48150        48153
    10.88300        48149        48149        48150        48156        48148
    10.90000        48158        48157        48160        48150        48156
    10.91700        48145        48144        48152        48146        48145
    10.93300        48140        48130        48137        48128        48136
    10.95000        48136        48130        48136        48121        48126
    10.96700        48124        48130        48122        48120        48124
    10.98300        48125        48124        48116        48128        48122
    11.00000        48118        48110        48120        48121        48124
    11.01700        48118        48114        48114        48118        48106
    11.03300        48109        48109        48106        48113        48112
    11.05000        48112        48105        48101        48110        48096
    11.06700        48098        48100        48098        48097        48093
    11.08300        48098        48097        48108        48094        48100
    11.10000        48097        48097        48078        48089        48088
    11.11700        48086        48097        48080        48093        48080
    11.13300        48082        48084        48077        48081        48094
    11.15000        48092        48088        48078        48096        48085
    11.16700        48085        48077        48074        48090        48072
    11.18300        48078        48069        48077        48077        48077
    11.20000        48070        48077        48064        48068        48066
    11.21700        48065        48073        48070        48072        48062
    11.23300        48064        48062        48053        48068        48056
    11.25000        48061        48053        48061        48062        48061
    11.26700        48052        48049        48061        48050        48060
    11.28300        48045        48052        48050        48054        48045
    11.30000        48046        48045        48048        48044        48046
    11.31700        48037        48037        48060        48032        48041
    11.33300        48045        48045        48042        48042        48042
    11.35000        48048        48050        48028        48045        48029
    11.36700        48044        48044        48040        48040        48038
    11.38300        48042        48033        48041        48042        48029
    11.40000        48030        48030        48037        48038        48034
    11.41700        48025        48041        48029        48029        48037
    11.43300        48029        48044        48029        48033        48038
    11.45000        48036        48034        48038        48037        48042
    11.46700        48029        48049        48036        48028        48028
    11.48300        48038        48028        48026        48024        48033
    11.50000        48028        48037        48029        48029        48033
    11.51700        48025        48038        48041        48029        48024
    11.53300        48029        48025        48029        48021        48026
    11.55000        48028        48026        48025        48025        48025
    11.56700        48028        48033        48026        48020        48025
    11.58300        48026        48026        48034        48021        48029
    11.60000        48020        48038        48030        48028        48028
    11.61700        48034        48036        48036        48036        48041
    11.63300        48032        48025        48040        48032        48052
    11.65000        48040        48040        48041        48036        48044
    11.66700        48046        48052        48041        48061        48048
    11.68300        48056        48053        48060        48044        48050
    11.70000        48064        48060        48056        48065        48061
    11.71700        48048        48062        48064        48077        48060
    11.73300        48057        48046        48048        48058        48060
    11.75000        48052        48046        48052        48040        48064
    11.76700        48045        48046        48046        48046        48054
    11.78300        48054        48046        48045        48046        48045
    11.80000        48060        48033        48044        48044        48028
    11.81700        48044        48032        48041        48038        48041
    11.83300        48038        48042        48036        48033        48029
    11.85000        48033        48040        48034        48036        48028
    11.86700        48042        48029        48044        48030        48028
    11.88300        48038        48029        48044        48033        48036
    11.90000        48028        48026        48034        48037        48026
    11.91700        48029        48033        48032        48029        48020
    11.93300        48026        48030        48026        48026        48030
    11.95000        48028        48025        48038        48032        48034
    11.96700        48024        48033        48029        48041        48029
    11.98300        48033        48037        48042        48034        48030
    12.00000        48034        48042        48028        48029        48044
    12.01700        48038        48034        48044        48037        48049
    12.03300        48041        48036        48033        48038        48036
    12.05000        48037        48045        48040        48029        48033
    12.06700        48042        48032        48030        48028        48036
    12.08300        48042        48038        48036        48041        48028
    12.10000        48045        48041        48030        48045        48033
    12.11700        48038        48045        48028        48049        48042
    12.13300        48033        48037        48048        48042        48045
    12.15000        48042        48034        48044        48044        48040
    12.16700        48048        48037        48037        48040        48044
    12.18300        48041        48038        48044        48041        48032
    12.20000        48044        48046        48045        48044        48030
    12.21700        48053        48040        48042        48056        48042
    12.23300        48054        48046        48050        48048        48057
    12.25000        48061        48061        48053        48045        48054
    12.26700        48053        48037        48046        48042        48056
    12.28300        48049        48053        48053        48040        48056
    12.30000        48045        48049        48048        48058        48045
    12.31700        48050        48041        48048        48062        48046
    12.33300        48062        48062        48065        48048        48046
    12.35000        48053        48045        48057        48064        48046
    12.36700        48048        48062        48046        48048        48058
    12.38300        48052        48045        48041        48032        48048
    12.40000        48052        48037        48054        48038        48033
    12.41700        48032        48036        48036        48026        48044
    12.43300        48044        48038        48037        48045        48028
    12.45000        48040        48029        48044        48030        48042
    12.46700        48030        48041        48037        48033        48032
    12.48300        48041        48045        48026        48038        48033
    12.50000        48029        48016        48030        48024        48030
    12.51700        48020        48030        48026        48013        48020
    12.53300        48025        48024        48018        48021        48022
    12.55000        48032        48022        48033        48032        48020
    12.56700        48022        48029        48033        48025        48022
    12.58300        48018        48018        48016        48005        48013
    12.60000        48018        48012        48005        48012        47997
    12.61700        48005        48001        48001        48004        47990
    12.63300        47993        47984        47981        47978        47978
    12.65000        47973        47982        47972        47988        47984
    12.66700        47985        47997        47994        47980        47985
    12.68300        47986        47980        47993        47997        47985
    12.70000        47994        47992        47993        47992        47986
    12.71700        47980        47973        47982        47981        47982
    12.73300        47978        47982        47980        47976        47974
    12.75000        47966        47962        47958        47960        47958
    12.76700        47952        47948        47941        47940        47952
    12.78300        47948        47944        47941        47936        47937
    12.80000        47940        47932        47940        47944        47928
    12.81700        47933        47930        47932        47928        47922
    12.83300        47925        47928        47934        47928        47929
    12.85000        47940        47933        47933        47932        47938
    12.86700        47932        47938        47940        47929        47940
    12.88300        47936        47936        47936        47930        47928
    12.90000        47937        47926        47929        47928        47929
    12.91700        47932        47929        47933        47956        47938
    12.93300        47940        47933        47944        47937        47941
    12.95000        47941        47928        47936        47938        47934
    12.96700        47946        47941        47941        47953        47946
    12.98300        47946        47953        47960        47960        47954
    13.00000        47966        47966        47976        47976        47962
    13.01700        47965        47969        47969        47965        47972
    13.03300        47977        47982        47973        47992        47994
    13.05000        47985        47990        47989        47992        47984
    13.06700        47997        47988        47997        47992        48002
    13.08300        48004        48010        47992        48005        47998
    13.10000        48000        47989        48005        48005        48002
    13.11700        48001        47992        48014        48008        48004
    13.13300        48009        48006        48009        48002        48006
    13.15000        48012        48008        48006        48005        48004
    13.16700        48006        48006        48000        48001        48004
    13.18300        48008        48000        48005        48004        48000
    13.20000        48014        48005        48002        48000        48006
    13.21700        48013        48012        48009        48016        48000
    13.23300        48008        48013        48004        48018        48012
    13.25000        48018        48010        48005        48010        48018
    13.26700        48006        48020        48006        48009        48028
    13.28300        48017        48008        48017        48020        48013
    13.30000        48014        48024        48017        48022        48026
    13.31700        48021        48018        48026        48021        48028
    13.33300        48018        48022        48022        48016        48021
    13.35000        48021        48017        48028        48026        48021
    13.36700        48032        48020        48021        48030        48029
    13.38300        48018        48029        48029        48022        48026
    13.40000        48028        48033        48022        48025        48029
    13.41700        48028        48026        48028        48032        48029
    13.43300        48042        48026        48024        48026        48030
    13.45000        48028        48030        48018        48028        48026
    13.46700        48029        48038        48028        48028        48028
    13.48300        48037        48021        48032        48029        48029
    13.50000        48038        48021        48034        48036        48025
    13.51700        48029        48033        48026        48026        48032
    13.53300        48025        48034        48026        48032        48038
    13.55000        48030        48028        48021        48030        48033
    13.56700        48029        48018        48025        48018        48028
    13.58300        48029        48020        48020        48029        48026
    13.60000        48020        48022        48018        48026        48024
    13.61700        48025        48026        48022        48020        48028
    13.63300        48028        48042        48033        48022        48036
    13.65000        48033        48038        48032        48030        48032
    13.66700        48034        48029        48026        48028        48038
    13.68300        48044        48038        48037        48040        48052
    13.70000        48040        48037        48042        48044        48042
    13.71700        48040        48046        48053        48045        48050
    13.73300        48042        48044        48046        48045        48050
    13.75000        48046        48056        48048        48045        48046
    13.76700        48045        48048        48056        48052        48045
    13.78300        48046        48058        48052        48049        48060
    13.80000        48062        48049        48058        48060        48060
    13.81700        48062        48054        48056        48056        48054
    13.83300        48062        48056        48056        48060        48056
    13.85000        48065        48060        48057        48054        48062
    13.86700        48062        48061        48062        48068        48056
    13.88300        48060        48066        48065        48072        48070
    13.90000        48065        48070        48066        48065        48068
    13.91700        48069        48077        48064        48078        48073
    13.93300        48072        48070        48078        48070        48064
    13.95000        48081        48077        48062        48082        48073
    13.96700        48081        48092        48074        48082        48092
    13.98300        48082        48084        48078        48077        48077
    14.00000        48072        48081        48070        48073        48068
    14.01700        48064        48060        48060        48048        48062
    14.03300        48061        48056        48058        48049        48058
    14.05000        48056        48057        48070        48060        48065
    14.06700        48062        48057        48052        48060        48070
    14.08300        48053        48060        48062        48064        48068
    14.10000        48065        48064        48080        48077        48077
    14.11700        48065        48064        48074        48073        48078
    14.13300        48078        48076        48084        48086        48081
    14.15000        48085        48086        48094        48082        48082
    14.16700        48090        48093        48093        48093        48093
    14.18300        48092        48100        48094        48096        48097
    14.20000        48096        48100        48093        48101        48094
    14.21700        48100        48090        48097        48094        48098
    14.23300        48104        48109        48092        48104        48097
    14.25000        48105        48104        48101        48096        48098
    14.26700        48102        48109        48100        48106        48110
    14.28300        48112        48105        48101        48101        48105
    14.30000        48105        48106        48105        48108        48120
    14.31700        48112        48116        48112        48116        48120
    14.33300        48121        48122        48125        48134        48132
    14.35000        48130        48128        48134        48134        48132
    14.36700        48130        48133        48140        48136        48133
    14.38300        48133        48132        48141        48142        48146
    14.40000        48153        48148        48145        48148        48157
    14.41700        48153        48150        48156        48154        48158
    14.43300        48161        48160        48162        48166        48164
    14.45000        48170        48170        48169        48173        48168
    14.46700        48176        48169        48176        48170        48174
    14.48300        48178        48169        48176        48178        48168
    14.50000        48176        48177        48178        48182        48172
    14.51700        48178        48181        48180        48186        48186
    14.53300        48189        48182        48186        48184        48184
    14.55000        48184        48194        48189        48178        48185
    14.56700        48196        48182        48197        48186        48185
    14.58300        48186        48185        48192        48182        48190
    14.60000        48200        48190        48196        48196        48196
    14.61700        48200        48194        48193        48190        48193
    14.63300        48184        48193        48192        48196        48186
    14.65000        48182        48178        48188        48192        48181
    14.66700        48184        48186        48182        48188        48190
    14.68300        48184        48182        48184        48176        48184
    14.70000        48181        48184        48170        48185        48176
    14.71700        48174        48180        48180        48168        48173
    14.73300        48172        48170        48169        48170        48164
    14.75000        48170        48173        48168        48166        48164
    14.76700        48169        48158        48169        48162        48166
    14.78300        48164        48165        48160        48161        48156
    14.80000        48157        48161        48154        48154        48150
    14.81700        48152        48153        48145        48145        48153
    14.83300        48154        48152        48158        48138        48146
    14.85000        48150        48144        48148        48142        48145
    14.86700        48141        48137        48132        48132        48138
    14.88300        48137        48138        48141        48133        48122
    14.90000        48122        48133        48130        48130        48128
    14.91700        48124        48132        48130        48134        48116
    14.93300        48117        48141        48124        48110        48118
    14.95000        48122        48114        48121        48121        48113
    14.96700        48105        48120        48124        48110        48108
    14.98300        48109        48110        48110        48108        48102
    15.00000        48117        48116        48106        48104        48106
    15.01700        48094        48093        48096        48100        48089
    15.03300        48104        48089        48096        48101        48104
    15.05000        48098        48104        48105        48102        48101
    15.06700        48101        48102        48106        48106        48101
    15.08300        48093        48101        48096        48088        48085
    15.10000        48085        48076        48085        48081        48078
    15.11700        48073        48078        48070        48074        48081
    15.13300        48072        48068        48080        48081        48077
    15.15000        48070        48068        48073        48066        48056
    15.16700        48069        48074        48068        48064        48074
    15.18300        48072        48065        48066        48062        48069
    15.20000        48056        48066        48072        48058        48068
    15.21700        48061        48066        48065        48061        48054
    15.23300        48057        48065        48065        48070        48048
    15.25000        48046        48057        48049        48062        48050
    15.26700        48049        48056        48054        48061        48048
    15.28300        48042        48053        48058        48050        48054
    15.30000        48049        48042        48046        48046        48028
    15.31700        48057        48045        48032        48046        48030
    15.33300        48041        48030        48034        48033        48034
    15.35000        48037        48038        48033        48034        48034
    15.36700        48029        48022        48026        48026        48022
    15.38300        48025        48024        48016        48024        48024
    15.40000        48012        48014        48013        48014        48016
    15.41700        48025        48013        48010        48013        48014
    15.43300        48017        48006        48012        48014        48013
    15.45000        48004        48009        48014        48002        48013
    15.46700        48009        48013        48008        48010        48012
    15.48300        48009        48009        48006        48012        48013
    15.50000        48012        48008        48013        48004        48013
    15.51700        48013        48005        48006        48002        47998
    15.53300        48010        48004        48008        48001        48005
    15.55000        48005        47996        48008        48004        48004
    15.56700        48006        48004        48008        48009        48010
    15.58300        48000        48002        47998        48002        47994
    15.60000        48004        47997        48009        48006        48006
    15.61700        47998        47994        48008        47997        48000
    15.63300        47998        47996        48000        47996        47990
    15.65000        47993        47990        47997        47988        47990
    15.66700        47993        47992        47996        47986        47984
    15.68300        47992        47993        47970        47984        47981
    15.70000        47988        47978        47989        47980        47986
    15.71700        47985        47989        47980        47986        47984
    15.73300        47978        47984        47992        47985        47986
    15.75000        47984        47989        47989        47988        47982
    15.76700        47972        47980        47972        47986        47977
    15.78300        47978        47974        47982        47976        47976
    15.80000        47981        47980        47990        47973        47973
    15.81700        47982        47982        47974        47981        47974
    15.83300        47972        47978        47981        47973        47972
    15.85000        47970        47978        47976        47978        47974
    15.86700        47980        47974        47973        47968        47969
    15.88300        47982        47974        47980        47980        47986
    15.90000        47980        47978        47974        47974        47978
    15.91700        47981        47977        47980        47970        47980
    15.93300        47976        47969        47970        47972        47974
    15.95000        47970        47970        47976        47974        47972
    15.96700        47977        47973        47974        47973        47978
    15.98300        47973        47968        47982        47972        47974
    16.00000        47965        47977        47969        47970        47973
    16.01700        47973        47982        47973        47974        47965
    16.03300        47981        47974        47968        47982        47968
    16.05000        47966        47968        47970        47964        47973
    16.06700        47973        47965        47968        47972        47965
    16.08300        47976        47962        47974        47974        47964
    16.10000        47966        47970        47978        47974        47964
    16.11700        47977        47970        47968        47966        47976
    16.13300        47973        47973        47968        47958        47965
    16.15000        47961        47966        47968        47969        47962
    16.16700        47973        47973        47970        47972        47977
    16.18300        47977        47970        47973        47972        47977
    16.20000        47968        47978        47984        47981        47986
    16.21700        47976        47980        47992        47977        47982
    16.23300        47986        47986        47990        47984        47994
    16.25000        47996        47988        47997        47992        47997
    16.26700        47990        47996        47996        47986        47986
    16.28300        47986        47992        47988        47985        47982
    16.30000        47977        47984        47976        47980        47980
    16.31700        47976        47977        47980        47976        47972
    16.33300        47964        47974        47973        47973        47972
    16.35000        47972        47968        47976        47973        47977
    16.36700        47977        47982        47977        47978        47973
    16.38300        47970        47976        47973        47972        47972
    16.40000        47984        47968        47980        47969        47966
    16.41700        47978        47973        47982        47974        47981
    16.43300        47969        47969        47972        47972        47969
    16.45000        47982        47985        47981        47981        47974
    16.46700        47984        47972        47978        47984        47980
    16.48300        47980        47978        47978        47977        47988
    16.50000        47982        47977        47986        47980        47984
    16.51700        47982        47984        47988        47988        47986
    16.53300        47982        47981        47976        47984        47988
    16.55000        47993        47986        47973        47986        47984
    16.56700        47981        47986        47986        47996        47985
    16.58300        47990        47986        47986        47992        47996
    16.60000        47990        47992        47989        48000        47988
    16.61700        47996        47992        47998        47992        47994
    16.63300        47993        47994        47997        48005        48000
    16.65000        48004        47993        48001        48002        48004
    16.66700        48002        48014        48012        48010        48013
    16.68300        48000        47998        48010        48005        47993
    16.70000        48012        48009        48004        48004        48009
    16.71700        48005        48010        48017        48009        48017
    16.73300        48012        48009        48018        48001        48010
    16.75000        48017        48012        48017        48018        48010
    16.76700        48012        48010        48026        48016        48025
    16.78300        48021        48024        48029        48022        48025
    16.80000        48025        48017        48026        48030        48028
    16.81700        48030        48037        48033        48032        48029
    16.83300        48030        48030        48032        48040        48045
    16.85000        48034        48040        48060        48041        48038
    16.86700        48041        48050        48057        48048        48046
    16.88300        48045        48049        48050        48057        48060
    16.90000        48046        48053        48056        48056        48057
    16.91700        48048        48061        48058        48068        48060
    16.93300        48073        48073        48065        48074        48070
    16.95000        48074        48068        48069        48073        48070
    16.96700        48076        48080        48077        48074        48080
    16.98300        48082        48082        48074        48069        48085
    17.00000        48078        48080        48086        48077        48092
    17.01700        48082        48085        48088        48088        48092
    17.03300        48106        48101        48093        48098        48101
    17.05000        48100        48106        48110        48104        48113
    17.06700        48120        48110        48114        48116        48128
    17.08300        48120        48113        48116        48118        48133
    17.10000        48129        48128        48128        48136        48140
    17.11700        48140        48141        48141        48141        48146
    17.13300        48142        48150        48154        48154        48156
    17.15000        48162        48160        48160        48169        48164
    17.16700        48173        48166        48168        48176        48184
    17.18300        48193        48194        48189        48186        48189
    17.20000        48194        48206        48206        48202        48202
    17.21700        48208        48213        48214        48210        48208
    17.23300        48222        48217        48212        48222        48228
    17.25000        48232        48225        48232        48236        48232
    17.26700        48233        48232        48232        48232        48242
    17.28300        48245        48244        48241        48240        48244
    17.30000        48253        48234        48244        48241        48250
    17.31700        48260        48252        48256        48252        48253
    17.33300        48258        48256        48256        48264        48266
    17.35000        48268        48274        48270        48274        48282
    17.36700        48276        48284        48297        48298        48297
    17.38300        48298        48293        48304        48313        48317
    17.40000        48312        48314        48316        48318        48325
    17.41700        48330        48321        48329        48329        48329
    17.43300        48340        48333        48336        48337        48333
    17.45000        48341        48341        48337        48342        48340
    17.46700        48348        48338        48354        48354        48356
    17.48300        48368        48364        48356        48356        48353
    17.50000        48350        48360        48362        48373        48376
    17.51700        48374        48381        48376        48380        48382
    17.53300        48389        48388        48388        48397        48385
    17.55000        48401        48396        48401        48405        48392
    17.56700        48405        48413        48416        48424        48409
    17.58300        48420        48425        48413        48422        48432
    17.60000        48426        48430        48442        48430        48452
    17.61700        48464        48445        48454        48448        48454
    17.63300        48460        48461        48460        48469        48469
    17.65000        48472        48468        48482        48481        48492
    17.66700        48486        48476        48478        48481        48485
    17.68300        48482        48490        48492        48498        48496
    17.70000        48505        48501        48504        48506        48508
    17.71700        48504        48510        48508        48510        48526
    17.73300        48521        48529        48534        48537        48536
    17.75000        48529        48529        48544        48540        48541
    17.76700        48552        48550        48544        48556        48553
    17.78300        48550        48565        48552        48560        48554
    17.80000        48561        48561        48576        48565        48562
    17.81700        48578        48578        48574        48573        48590
    17.83300        48582        48581        48588        48590        48597
    17.85000        48594        48582        48594        48590        48594
    17.86700        48589        48592        48606        48604        48604
    17.88300        48609        48605        48606        48605        48606
    17.90000        48612        48620        48614        48616        48610
    17.91700        48613        48613        48616        48612        48621
    17.93300        48621        48626        48622        48630        48625
    17.95000        48621        48626        48618        48630        48632
    17.96700        48636        48628        48634        48624        48636
    17.98300        48641        48637        48630        48636        48640
    18.00000        48641        48645        48641        48642        48650
    18.01700        48649        48654        48644        48662        48652
    18.03300        48649        48656        48653        48640        48656
    18.05000        48652        48650        48649        48665        48664
    18.06700        48652        48656        48658        48656        48658
    18.08300        48652        48658        48653        48660        48652
    18.10000        48668        48665        48665        48660        48653
    18.11700        48658        48661        48656        48661        48656
    18.13300        48653        48653        48653        48662        48654
    18.15000        48658        48652        48661        48654        48652
    18.16700        48648        48652        48666        48652        48648
    18.18300        48654        48652        48646        48644        48654
    18.20000        48652        48665        48653        48661        48656
    18.21700        48652        48657        48641        48652        48650
    18.23300        48634        48660        48645        48642        48645
    18.25000        48630        48640        48630        48633        48638
    18.26700        48630        48641        48640        48630        48633
    18.28300        48630        48622        48641        48634        48640
    18.30000        48629        48620        48629        48628        48624
    18.31700        48630        48622        48620        48624        48632
    18.33300        48626        48621        48618        48610        48622
    18.35000        48610        48616        48597        48597        48590
    18.36700        48601        48598        48597        48590        48592
    18.38300        48597        48590        48581        48582        48582
    18.40000        48581        48577        48568        48564        48566
    18.41700        48565        48574        48564        48566        48568
    18.43300        48562        48556        48558        48560        48546
    18.45000        48554        48557        48544        48545        48544
    18.46700        48537        48544        48537        48532        48537
    18.48300        48533        48530        48534        48526        48524
    18.50000        48532        48520        48516        48510        48516
    18.51700        48509        48504        48512        48506        48505
    18.53300        48494        48497        48502        48500        48493
    18.55000        48485        48493        48496        48486        48474
    18.56700        48477        48481        48470        48472        48474
    18.58300        48460        48465        48466        48460        48461
    18.60000        48464        48461        48454        48457        48448
    18.61700        48452        48449        48444        48445        48441
    18.63300        48441        48441        48432        48429        48428
    18.65000        48424        48421        48418        48414        48421
    18.66700        48417        48420        48424        48416        48414
    18.68300        48404        48408        48414        48405        48404
    18.70000        48402        48402        48410        48390        48402
    18.71700        48400        48390        48398        48397        48390
    18.73300        48385        48388        48378        48376        48373
    18.75000        48376        48376        48378        48376        48370
    18.76700        48365        48366        48356        48360        48360
    18.78300        48357        48361        48361        48362        48369
    18.80000        48352        48356        48356        48344        48350
    18.81700        48338        48344        48341        48334        48340
    18.83300        48333        48337        48337        48338        48340
    18.85000        48340        48341        48337        48332        48325
    18.86700        48329        48329        48324        48328        48320
    18.88300        48322        48328        48333        48324        48332
    18.90000        48333        48329        48324        48336        48341
    18.91700        48328        48325        48324        48322        48329
    18.93300        48328        48318        48325        48321        48318
    18.95000        48309        48314        48312        48325        48308
    18.96700        48302        48304        48302        48300        48306
    18.98300        48300        48305        48301        48305        48302
    19.00000        48300        48297        48300        48304        48300
    19.01700        48304        48301        48302        48302        48304
    19.03300        48292        48297        48300        48301        48294
    19.05000        48293        48296        48289        48288        48302
    19.06700        48298        48294        48297        48300        48297
    19.08300        48302        48302        48298        48289        48298
    19.10000        48301        48298        48297        48296        48293
    19.11700        48301        48294        48301        48301        48300
    19.13300        48293        48302        48305        48294        48292
    19.15000        48305        48294        48296        48304        48293
    19.16700        48297        48305        48304        48304        48306
    19.18300        48296        48294        48290        48305        48302
    19.20000        48300        48301        48316        48304        48297
    19.21700        48298        48316        48294        48309        48297
    19.23300        48304        48302        48294        48304        48302
    19.25000        48297        48302        48292        48297        48300
    19.26700        48293        48304        48304        48300        48298
    19.28300        48300        48304        48288        48297        48294
    19.30000        48305        48294        48301        48302        48292
    19.31700        48296        48289        48297        48300        48297
    19.33300        48288        48293        48294        48292        48302
    19.35000        48301        48296        48292        48288        48293
    19.36700        48296        48294        48288        48298        48301
    19.38300        48296        48288        48296        48282        48292
    19.40000        48290        48281        48280        48278        48276
    19.41700        48280        48278        48276        48276        48285
    19.43300        48284        48269        48277        48281        48268
    19.45000        48286        48272        48272        48268        48274
    19.46700        48276        48262        48266        48258        48250
    19.48300        48261        48261        48257        48253        48250
    19.50000        48242        48237        48246        48229        48234
    19.51700        48229        48234        48233        48225        48221
    19.53300        48220        48218        48214        48214        48216
    19.55000        48216        48225        48217        48221        48213
    19.56700        48214        48220        48202        48208        48213
    19.58300        48209        48204        48201        48204        48200
    19.60000        48202        48196        48196        48192        48196
    19.61700        48196        48188        48202        48189        48198
    19.63300        48196        48188        48180        48188        48182
    19.65000        48185        48181        48174        48166        48165
    19.66700        48166        48168        48157        48160        48149
    19.68300        48165        48158        48146        48149        48152
    19.70000        48153        48153        48152        48146        48144
    19.71700        48142        48134        48141        48133        48137
    19.73300        48128        48122        48140        48122        48124
    19.75000        48129        48132        48124        48128        48113
    19.76700        48116        48121        48114        48118        48106
    19.78300        48109        48116        48104        48090        48097
    19.80000        48102        48093        48104        48102        48097
    19.81700        48102        48089        48090        48089        48088
    19.83300        48092        48090        48088        48082        48085
    19.85000        48082        48082        48082        48073        48072
    19.86700        48076        48077        48074        48070        48073
    19.88300        48072        48065        48069        48056        48070
    19.90000        48065        48065        48057        48064        48062
    19.91700        48053        48058        48050        48053        48053
    19.93300        48048        48061        48062        48056        48054
    19.95000        48045        48046        48056        48054        48030
    19.96700        48052        48053        48048        48038        48052
    19.98300        48046        48044        48036        48045        48040
    19.99700        48040        48046
##END= 
