##TITLE= Headspace from ginger
##JCAMP-DX= 4.24
##DATA TYPE= GAS CHROMATOGRAPH
##$ASDF TYPE= FIX
##ORIGIN= HP 5890 GC TABULATED file
##OWNER= Dept of Chem, UWI, Mona, JAMAICA
##DATE= 11-26-1995
##TIME= 08:53:03
##NPOINTS=   6003
##XUNITS= TIME
##YUNITS= ARBITRARY
##FIRSTX=      0.00000
##LASTX=     20.00700
##XFACTOR= 1.0
##YFACTOR= 1.0
##FIRSTY=      50297
##MAXY=     188380
##MINY=      48569
##XYDATA= (X++(Y..Y))
     0.00000        50297        50317        50319        50330        50330
     0.01700        50338        50351        50354        50357        50355
     0.03300        50351        50359        50351        50354        50345
     0.05000        50339        50343        50343        50319        50315
     0.06700        50305        50303        50295        50286        50274
     0.08300        50254        50253        50241        50229        50207
     0.10000        50199        50179        50174        50163        50145
     0.11700        50119        50121        50098        50081        50069
     0.13300        50049        50029        50015        49991        49982
     0.15000        49961        49953        49927        49917        49914
     0.16700        49879        49867        49857        49835        49831
     0.18300        49810        49794        49778        49761        49751
     0.20000        49734        49722        49710        49693        49677
     0.21700        49671        49659        49631        49621        49606
     0.23300        49591        49575        49573        49561        49554
     0.25000        49529        49522        49514        49511        49495
     0.26700        49477        49471        49453        49451        49429
     0.28300        49415        49421        49413        49401        49397
     0.30000        49373        49382        49369        49357        49365
     0.31700        49353        49334        49339        49330        49327
     0.33300        49314        49301        49303        49298        49293
     0.35000        49294        49291        49270        49277        49274
     0.36700        49271        49269        49257        49261        49263
     0.38300        49257        49250        49250        49246        49247
     0.40000        49233        49246        49243        49229        49234
     0.41700        49242        49247        49234        49227        49214
     0.43300        49225        49215        49215        49221        49222
     0.45000        49213        49214        49209        49215        49211
     0.46700        49211        49206        49203        49211        49214
     0.48300        49217        49207        49215        49203        49206
     0.50000        49205        49209        49199        49206        49205
     0.51700        49202        49194        49213        49193        49203
     0.53300        49203        49199        49198        49198        49194
     0.55000        49190        49203        49199        49190        49195
     0.56700        49197        49187        49199        49189        49187
     0.58300        49194        49193        49187        49190        49194
     0.60000        49194        49186        49182        49191        49183
     0.61700        49186        49183        49191        49186        49193
     0.63300        49186        49185        49197        49189        49185
     0.65000        49193        49182        49187        49175        49191
     0.66700        49185        49186        49178        49181        49181
     0.68300        49185        49182        49183        49181        49181
     0.70000        49186        49175        49183        49177        49181
     0.71700        49178        49167        49179        49183        49166
     0.73300        49177        49179        49162        49166        49177
     0.75000        49173        49174        49169        49182        49173
     0.76700        49169        49171        49169        49162        49167
     0.78300        49167        49167        49173        49178        49169
     0.80000        49171        49174        49175        49171        49162
     0.81700        49155        49166        49165        49177        49165
     0.83300        49163        49171        49161        49167        49163
     0.85000        49157        49157        49162        49162        49166
     0.86700        49155        49165        49162        49161        49165
     0.88300        49149        49163        49159        49165        49158
     0.90000        49163        49162        49165        49167        49170
     0.91700        49166        49170        49166        49166        49157
     0.93300        49169        49170        49170        49158        49161
     0.95000        49170        49169        49162        49162        49162
     0.96700        49170        49158        49166        49169        49159
     0.98300        49162        49166        49162        49166        49163
     1.00000        49163        49162        49170        49157        49162
     1.01700        49151        49158        49162        49159        49171
     1.03300        49163        49154        49159        49154        49154
     1.05000        49159        49154        49151        49149        49154
     1.06700        49162        49158        49146        49151        49161
     1.08300        49159        49151        49146        49158        49157
     1.10000        49151        49155        49163        49158        49150
     1.11700        49165        49151        49157        49153        49159
     1.13300        49162        49159        49162        49159        49161
     1.15000        49177        49178        49173        49177        49177
     1.16700        49178        49187        49195        49191        49203
     1.18300        49198        49198        49210        49219        49227
     1.20000        49217        49225        49225        49234        49241
     1.21700        49242        49251        49242        49255        49262
     1.23300        49269        49257        49266        49274        49277
     1.25000        49267        49281        49287        49287        49275
     1.26700        49277        49290        49286        49285        49281
     1.28300        49277        49269        49274        49282        49271
     1.30000        49269        49266        49277        49269        49262
     1.31700        49267        49274        49267        49267        49269
     1.33300        49267        49271        49265        49262        49266
     1.35000        49269        49258        49267        49263        49262
     1.36700        49270        49251        49254        49262        49269
     1.38300        49279        49285        49301        49306        49331
     1.40000        49350        49379        49399        49430        49461
     1.41700        49501        49531        49566        49599        49633
     1.43300        49682        49702        49731        49769        49814
     1.45000        49846        49879        49905        49930        49963
     1.46700        49983        49999        50025        50050        50051
     1.48300        50077        50089        50109        50118        50121
     1.50000        50141        50138        50147        50151        50154
     1.51700        50151        50151        50142        50146        50139
     1.53300        50129        50138        50135        50122        50129
     1.55000        50118        50110        50107        50097        50103
     1.56700        50101        50090        50079        50078        50066
     1.58300        50053        50059        50043        50039        50031
     1.60000        50034        50039        50031        50026        50021
     1.61700        50022        50015        50017        50018        50014
     1.63300        50015        50013        50021        50019        50021
     1.65000        50021        50022        50022        50018        50002
     1.66700        50009        50001        49998        49999        49998
     1.68300        49981        49975        49974        49954        49951
     1.70000        49941        49929        49935        49919        49910
     1.71700        49909        49894        49898        49885        49879
     1.73300        49878        49874        49875        49879        49871
     1.75000        49883        49882        49893        49895        49906
     1.76700        49923        49934        49941        49949        49961
     1.78300        49971        49986        49999        50002        50017
     1.80000        50022        50041        50041        50051        50066
     1.81700        50065        50063        50067        50077        50079
     1.83300        50069        50073        50073        50074        50073
     1.85000        50071        50059        50049        50046        50045
     1.86700        50029        50017        50013        50003        49993
     1.88300        49991        49971        49962        49953        49934
     1.90000        49922        49914        49893        49883        49865
     1.91700        49859        49843        49842        49822        49810
     1.93300        49791        49783        49763        49759        49745
     1.95000        49723        49726        49706        49697        49678
     1.96700        49662        49651        49645        49627        49625
     1.98300        49618        49607        49590        49590        49570
     2.00000        49566        49563        49550        49545        49535
     2.01700        49521        49517        49517        49505        49494
     2.03300        49493        49483        49475        49482        49467
     2.05000        49471        49461        49445        49449        49442
     2.06700        49447        49441        49435        49430        49439
     2.08300        49425        49418        49431        49415        49411
     2.10000        49414        49398        49410        49398        49402
     2.11700        49405        49395        49395        49387        49378
     2.13300        49390        49367        49367        49365        49367
     2.15000        49359        49351        49363        49354        49351
     2.16700        49353        49359        49343        49345        49341
     2.18300        49345        49343        49342        49341        49343
     2.20000        49335        49349        49343        49335        49349
     2.21700        49345        49349        49365        49374        49378
     2.23300        49386        49390        49391        49406        49397
     2.25000        49411        49415        49415        49411        49421
     2.26700        49426        49429        49418        49402        49385
     2.28300        49345        49289        49234        49198        49147
     2.30000        49130        49113        49110        49107        49099
     2.31700        49095        49095        49099        49086        49098
     2.33300        49093        49086        49087        49093        49086
     2.35000        49073        49080        49078        49077        49066
     2.36700        49064        49072        49060        49060        49061
     2.38300        49061        49057        49057        49056        49054
     2.40000        49052        49053        49054        49056        49049
     2.41700        49057        49054        49054        49049        49045
     2.43300        49048        49045        49036        49042        49033
     2.45000        49032        49032        49034        49033        49025
     2.46700        49024        49016        49021        49006        49014
     2.48300        49004        49010        48997        48996        49001
     2.50000        48992        49000        48984        48998        48962
     2.51700        48982        48976        48976        48964        48978
     2.53300        48962        48973        48952        48953        48957
     2.55000        48945        48945        48942        48949        48942
     2.56700        48940        48926        48942        48932        48922
     2.58300        48930        48924        48925        48920        48913
     2.60000        48924        48912        48908        48912        48916
     2.61700        48905        48908        48906        48908        48898
     2.63300        48904        48898        48894        48900        48888
     2.65000        48882        48890        48880        48884        48877
     2.66700        48888        48877        48874        48872        48876
     2.68300        48873        48874        48878        48877        48884
     2.70000        48880        48880        48877        48874        48881
     2.71700        48882        48873        48881        48882        48874
     2.73300        48880        48881        48886        48876        48878
     2.75000        48885        48886        48884        48880        48880
     2.76700        48894        48882        48882        48884        48882
     2.78300        48882        48889        48889        48889        48889
     2.80000        48888        48888        48898        48881        48884
     2.81700        48888        48885        48886        48889        48888
     2.83300        48882        48878        48897        48893        48890
     2.85000        48894        48886        48884        48888        48885
     2.86700        48876        48882        48877        48896        48885
     2.88300        48880        48885        48889        48892        48897
     2.90000        48898        48901        48909        48905        48918
     2.91700        48913        48933        48933        48944        48945
     2.93300        48958        48966        48980        48989        49017
     2.95000        49012        49026        49041        49044        49058
     2.96700        49074        49080        49093        49106        49119
     2.98300        49115        49126        49110        49137        49135
     3.00000        49138        49139        49147        49150        49149
     3.01700        49158        49159        49151        49149        49151
     3.03300        49150        49147        49138        49138        49138
     3.05000        49122        49130        49126        49119        49119
     3.06700        49102        49097        49101        49089        49089
     3.08300        49082        49078        49083        49074        49065
     3.10000        49062        49062        49048        49062        49044
     3.11700        49042        49044        49036        49036        49026
     3.13300        49024        49029        49024        49013        49013
     3.15000        49002        49008        49005        48997        48998
     3.16700        49002        49000        48988        48985        48996
     3.18300        48981        48994        48978        48973        48970
     3.20000        48961        48969        48965        48961        48957
     3.21700        48953        48949        48949        48944        48952
     3.23300        48941        48936        48945        48933        48928
     3.25000        48925        48930        48920        48920        48918
     3.26700        48909        48906        48906        48909        48900
     3.28300        48901        48898        48897        48888        48893
     3.30000        48889        48885        48881        48882        48880
     3.31700        48881        48874        48881        48876        48872
     3.33300        48862        48858        48866        48868        48865
     3.35000        48869        48866        48864        48864        48857
     3.36700        48860        48862        48865        48870        48860
     3.38300        48866        48862        48868        48868        48866
     3.40000        48877        48869        48882        48888        48892
     3.41700        48898        48914        48928        48934        48962
     3.43300        48972        48998        49032        49050        49087
     3.45000        49127        49158        49194        49233        49265
     3.46700        49294        49334        49370        49394        49426
     3.48300        49451        49481        49515        49534        49558
     3.50000        49569        49587        49590        49605        49617
     3.51700        49627        49631        49622        49629        49633
     3.53300        49642        49622        49626        49618        49610
     3.55000        49605        49607        49582        49575        49554
     3.56700        49551        49547        49530        49529        49511
     3.58300        49513        49509        49502        49505        49491
     3.60000        49499        49502        49506        49521        49519
     3.61700        49509        49511        49519        49530        49533
     3.63300        49537        49553        49555        49558        49561
     3.65000        49562        49571        49577        49574        49579
     3.66700        49579        49579        49567        49567        49565
     3.68300        49559        49555        49549        49542        49527
     3.70000        49523        49510        49502        49494        49477
     3.71700        49467        49455        49446        49430        49415
     3.73300        49394        49387        49373        49362        49351
     3.75000        49335        49310        49302        49290        49286
     3.76700        49267        49254        49250        49226        49222
     3.78300        49209        49197        49185        49166        49163
     3.80000        49157        49147        49135        49122        49114
     3.81700        49097        49094        49089        49077        49072
     3.83300        49064        49060        49053        49052        49041
     3.85000        49038        49036        49017        49018        49016
     3.86700        49006        49004        49000        48993        48986
     3.88300        48984        48981        48978        48980        48978
     3.90000        48973        48965        48958        48962        48957
     3.91700        48954        48950        48956        48946        48940
     3.93300        48954        48945        48948        48944        48948
     3.95000        48944        48932        48934        48938        48945
     3.96700        48930        48934        48933        48926        48933
     3.98300        48933        48940        48930        48930        48941
     4.00000        48922        48934        48940        48944        48956
     4.01700        48978        48978        49001        49032        49062
     4.03300        49109        49150        49209        49262        49334
     4.05000        49414        49499        49581        49689        49794
     4.06700        49911        50027        50146        50259        50391
     4.08300        50510        50631        50747        50871        50987
     4.10000        51095        51199        51298        51389        51478
     4.11700        51555        51638        51702        51751        51801
     4.13300        51842        51886        51899        51927        51942
     4.15000        51939        51943        51929        51926        51891
     4.16700        51875        51858        51821        51771        51730
     4.18300        51683        51641        51597        51543        51489
     4.20000        51426        51370        51305        51247        51186
     4.21700        51118        51057        51010        50953        50909
     4.23300        50862        50838        50815        50822        50837
     4.25000        50875        50963        51073        51239        51446
     4.26700        51713        52043        52441        52922        53467
     4.28300        54108        54836        55632        56520        57489
     4.30000        58545        59660        60797        62004        63273
     4.31700        64502        65781        67151        68475        69659
     4.33300        70976        72177        73235        74448        75521
     4.35000        76488        77362        78120        78929        79601
     4.36700        80211        80742        81181        81523        81807
     4.38300        82003        82114        82214        82179        82058
     4.40000        81928        81699        81442        81074        80622
     4.41700        80155        79702        79247        78750        78190
     4.43300        77604        76877        76249        75630        74954
     4.45000        74287        73644        72927        72097        71392
     4.46700        70650        70036        69336        68604        67943
     4.48300        67267        66611        65977        65399        64821
     4.50000        64218        63626        63062        62532        61942
     4.51700        61428        60930        60464        59993        59520
     4.53300        59061        58608        58183        57783        57399
     4.55000        57027        56665        56339        56004        55676
     4.56700        55386        55106        54858        54591        54362
     4.58300        54178        54007        53879        53800        53770
     4.60000        53830        53944        54186        54540        55056
     4.61700        55738        56597        57680        59017        60624
     4.63300        62533        64675        67230        69955        73064
     4.65000        76501        80151        84087        88292        92754
     4.66700        97391       102135       106990       112020       117076
     4.68300       122259       127330       132329       137138       142034
     4.70000       146744       151329       155576       159651       163732
     4.71700       167353       170416       173483       176264       178841
     4.73300       181295       183301       185080       186260       187171
     4.75000       187804       188324       188380       188160       187539
     4.76700       186718       185408       183738       182038       180247
     4.78300       178137       175719       173356       170814       168129
     4.80000       165312       162413       159485       156579       153486
     4.81700       150353       147282       144101       140891       137833
     4.83300       134849       131971       129108       126322       123385
     4.85000       120644       117984       115379       112748       110211
     4.86700       107731       105368       103096       100893        98752
     4.88300        96679        94651        92731        90920        89065
     4.90000        87373        85656        84059        82522        80999
     4.91700        79609        78362        76980        75720        74528
     4.93300        73456        72329        71235        70287        69395
     4.95000        68404        67522        66687        65929        65218
     4.96700        64470        63746        63088        62461        61846
     4.98300        61253        60725        60236        59720        59236
     5.00000        58764        58332        57931        57537        57173
     5.01700        56819        56487        56179        55864        55590
     5.03300        55328        55070        54812        54566        54348
     5.05000        54138        53952        53758        53571        53398
     5.06700        53238        53096        52958        52822        52685
     5.08300        52563        52438        52314        52225        52118
     5.10000        52019        51926        51846        51747        51669
     5.11700        51585        51511        51434        51362        51295
     5.13300        51229        51175        51110        51058        50993
     5.15000        50933        50881        50835        50782        50743
     5.16700        50690        50649        50610        50561        50522
     5.18300        50473        50429        50381        50346        50305
     5.20000        50253        50209        50169        50139        50102
     5.21700        50074        50039        50007        49986        49961
     5.23300        49942        49910        49895        49870        49862
     5.25000        49838        49818        49797        49793        49778
     5.26700        49769        49755        49754        49746        49733
     5.28300        49737        49731        49737        49750        49749
     5.30000        49755        49761        49773        49794        49811
     5.31700        49815        49835        49843        49863        49890
     5.33300        49903        49921        49947        49961        49977
     5.35000        49991        50010        50029        50042        50065
     5.36700        50083        50103        50127        50143        50165
     5.38300        50205        50241        50282        50327        50353
     5.40000        50415        50453        50509        50577        50630
     5.41700        50701        50773        50849        50934        50999
     5.43300        51074        51159        51237        51327        51399
     5.45000        51475        51546        51621        51679        51741
     5.46700        51789        51859        51907        51955        51977
     5.48300        52005        52034        52053        52053        52059
     5.50000        52075        52051        52031        52015        51998
     5.51700        51969        51935        51894        51846        51806
     5.53300        51761        51690        51626        51546        51470
     5.55000        51391        51306        51222        51134        51042
     5.56700        50954        50869        50790        50719        50641
     5.58300        50577        50510        50451        50398        50327
     5.60000        50271        50213        50167        50106        50062
     5.61700        50015        49971        49931        49882        49829
     5.63300        49787        49755        49715        49674        49639
     5.65000        49607        49575        49546        49509        49470
     5.66700        49438        49415        49382        49367        49345
     5.68300        49325        49286        49277        49261        49241
     5.70000        49231        49219        49210        49194        49194
     5.71700        49190        49181        49197        49197        49210
     5.73300        49211        49229        49255        49278        49297
     5.75000        49337        49374        49422        49470        49531
     5.76700        49601        49683        49766        49883        49983
     5.78300        50107        50262        50425        50607        50798
     5.80000        51027        51267        51527        51789        52078
     5.81700        52389        52717        53056        53420        53804
     5.83300        54168        54538        54914        55303        55703
     5.85000        56076        56453        56800        57128        57449
     5.86700        57747        58019        58265        58504        58723
     5.88300        58919        59087        59252        59397        59471
     5.90000        59535        59559        59577        59575        59553
     5.91700        59520        59459        59397        59272        59152
     5.93300        59005        58860        58703        58536        58343
     5.95000        58144        57940        57728        57513        57276
     5.96700        57071        56856        56648        56421        56195
     5.98300        55966        55752        55527        55300        55090
     6.00000        54876        54678        54466        54256        54072
     6.01700        53862        53679        53502        53324        53146
     6.03300        52968        52811        52634        52483        52326
     6.05000        52199        52051        51914        51783        51661
     6.06700        51546        51427        51303        51205        51109
     6.08300        51007        50909        50815        50733        50638
     6.10000        50581        50511        50421        50355        50289
     6.11700        50219        50158        50086        50034        49985
     6.13300        49939        49891        49843        49789        49751
     6.15000        49711        49675        49638        49605        49566
     6.16700        49526        49501        49474        49438        49422
     6.18300        49390        49370        49346        49326        49305
     6.20000        49287        49267        49254        49238        49218
     6.21700        49199        49183        49170        49167        49153
     6.23300        49146        49134        49127        49123        49125
     6.25000        49126        49137        49134        49142        49157
     6.26700        49173        49189        49213        49241        49286
     6.28300        49305        49353        49398        49450        49511
     6.30000        49577        49643        49710        49790        49875
     6.31700        49971        50059        50150        50238        50334
     6.33300        50431        50523        50621        50719        50813
     6.35000        50914        50995        51077        51151        51235
     6.36700        51303        51369        51435        51489        51539
     6.38300        51589        51621        51657        51685        51717
     6.40000        51743        51743        51749        51766        51770
     6.41700        51758        51750        51746        51719        51715
     6.43300        51683        51665        51623        51606        51565
     6.45000        51529        51502        51453        51405        51375
     6.46700        51331        51281        51238        51193        51159
     6.48300        51111        51077        51029        50987        50946
     6.50000        50915        50863        50831        50791        50741
     6.51700        50710        50675        50642        50595        50585
     6.53300        50529        50499        50475        50430        50406
     6.55000        50379        50349        50322        50291        50271
     6.56700        50239        50215        50191        50173        50154
     6.58300        50146        50115        50089        50070        50053
     6.60000        50019        50005        49995        49970        49955
     6.61700        49933        49929        49891        49881        49857
     6.63300        49839        49825        49802        49779        49775
     6.65000        49753        49734        49719        49706        49686
     6.66700        49677        49658        49645        49621        49619
     6.68300        49597        49574        49565        49566        49541
     6.70000        49517        49497        49486        49483        49465
     6.71700        49437        49418        49421        49406        49390
     6.73300        49386        49375        49363        49357        49358
     6.75000        49335        49339        49335        49330        49329
     6.76700        49319        49318        49313        49323        49307
     6.78300        49321        49313        49314        49318        49321
     6.80000        49313        49326        49318        49325        49330
     6.81700        49327        49331        49333        49327        49337
     6.83300        49331        49330        49326        49334        49330
     6.85000        49330        49334        49327        49326        49327
     6.86700        49321        49327        49310        49311        49309
     6.88300        49303        49301        49286        49285        49271
     6.90000        49267        49265        49257        49253        49245
     6.91700        49234        49233        49221        49213        49219
     6.93300        49203        49197        49194        49178        49178
     6.95000        49169        49163        49150        49145        49131
     6.96700        49129        49122        49117        49099        49093
     6.98300        49085        49078        49069        49058        49058
     7.00000        49053        49044        49042        49026        49029
     7.01700        49018        49014        49008        49004        49000
     7.03300        48993        48992        48988        48989        48981
     7.05000        48969        48973        48972        48976        48972
     7.06700        48968        48981        48978        48989        48992
     7.08300        48998        49001        49021        49024        49026
     7.10000        49050        49066        49073        49093        49101
     7.11700        49123        49134        49163        49174        49189
     7.13300        49201        49223        49235        49257        49267
     7.15000        49285        49302        49321        49335        49339
     7.16700        49351        49366        49386        49374        49393
     7.18300        49405        49418        49429        49421        49439
     7.20000        49458        49470        49482        49494        49507
     7.21700        49542        49586        49622        49673        49741
     7.23300        49830        49933        50037        50183        50355
     7.25000        50539        50763        51018        51298        51633
     7.26700        51997        52411        52871        53374        53943
     7.28300        54546        55190        55887        56608        57364
     7.30000        58181        59029        59913        60853        61822
     7.31700        62789        63821        64773        65757        66799
     7.33300        67819        68794        69674        70707        71643
     7.35000        72560        73337        74216        75052        75790
     7.36700        76528        77177        77720        78169        78691
     7.38300        79103        79415        79715        79993        80186
     7.40000        80357        80474        80487        80441        80379
     7.41700        80321        80318        80233        80195        80129
     7.43300        80049        80027        80031        80023        80011
     7.45000        80115        80150        80149        80113        80026
     7.46700        79991        79922        79883        79821        79702
     7.48300        79542        79363        79209        78969        78790
     7.50000        78565        78350        78069        77692        77236
     7.51700        76857        76468        76026        75552        75097
     7.53300        74650        74184        73697        73169        72556
     7.55000        72017        71452        70908        70372        69808
     7.56700        69242        68655        68151        67638        67046
     7.58300        66466        65919        65405        64897        64335
     7.60000        63818        63280        62828        62370        61894
     7.61700        61453        61026        60630        60205        59777
     7.63300        59375        59027        58655        58312        57928
     7.65000        57603        57284        56967        56671        56389
     7.66700        56115        55830        55559        55314        55071
     7.68300        54835        54600        54380        54180        53975
     7.70000        53790        53592        53408        53222        53071
     7.71700        52904        52776        52623        52491        52342
     7.73300        52205        52085        51967        51853        51738
     7.75000        51631        51541        51441        51350        51261
     7.76700        51167        51095        51011        50937        50870
     7.78300        50805        50727        50677        50613        50547
     7.80000        50495        50450        50383        50325        50285
     7.81700        50241        50189        50151        50114        50066
     7.83300        50030        49979        49957        49922        49891
     7.85000        49849        49821        49793        49758        49729
     7.86700        49702        49677        49654        49613        49597
     7.88300        49570        49543        49525        49510        49483
     7.90000        49471        49447        49431        49411        49402
     7.91700        49389        49369        49355        49345        49330
     7.93300        49311        49297        49287        49269        49265
     7.95000        49257        49250        49229        49214        49221
     7.96700        49203        49202        49199        49201        49207
     7.98300        49186        49145        49169        49167        49169
     8.00000        49169        49159        49154        49161        49167
     8.01700        49166        49182        49177        49179        49185
     8.03300        49193        49205        49206        49222        49231
     8.05000        49251        49253        49266        49279        49291
     8.06700        49295        49310        49323        49323        49339
     8.08300        49350        49355        49358        49357        49366
     8.10000        49377        49382        49387        49387        49397
     8.11700        49387        49401        49390        49389        49385
     8.13300        49399        49379        49379        49367        49363
     8.15000        49365        49346        49339        49329        49326
     8.16700        49311        49294        49286        49271        49263
     8.18300        49245        49227        49214        49198        49182
     8.20000        49177        49167        49137        49131        49115
     8.21700        49105        49099        49076        49074        49060
     8.23300        49053        49042        49038        49028        49021
     8.25000        49016        49012        49002        49004        48993
     8.26700        48985        48994        48980        48980        48980
     8.28300        48973        48972        48977        48968        48972
     8.30000        48968        48962        48961        48957        48961
     8.31700        48964        48960        48949        48949        48948
     8.33300        48942        48950        48948        48940        48941
     8.35000        48936        48932        48926        48929        48914
     8.36700        48921        48918        48917        48916        48908
     8.38300        48906        48900        48897        48901        48894
     8.40000        48889        48890        48885        48874        48870
     8.41700        48869        48858        48854        48858        48848
     8.43300        48849        48841        48841        48840        48838
     8.45000        48841        48838        48828        48821        48824
     8.46700        48824        48825        48822        48816        48818
     8.48300        48818        48804        48810        48814        48809
     8.50000        48806        48805        48808        48796        48794
     8.51700        48793        48792        48798        48784        48793
     8.53300        48792        48788        48786        48777        48778
     8.55000        48789        48769        48785        48778        48781
     8.56700        48782        48776        48777        48768        48773
     8.58300        48777        48773        48782        48774        48777
     8.60000        48770        48772        48765        48769        48761
     8.61700        48769        48766        48761        48766        48766
     8.63300        48761        48750        48756        48762        48758
     8.65000        48752        48750        48750        48756        48746
     8.66700        48737        48746        48740        48740        48741
     8.68300        48744        48746        48738        48741        48745
     8.70000        48749        48749        48740        48737        48749
     8.71700        48745        48750        48749        48742        48744
     8.73300        48753        48752        48754        48758        48765
     8.75000        48770        48765        48770        48776        48776
     8.76700        48778        48790        48781        48798        48814
     8.78300        48805        48805        48820        48824        48836
     8.80000        48845        48860        48874        48881        48877
     8.81700        48893        48902        48910        48914        48922
     8.83300        48934        48938        48950        48958        48965
     8.85000        48964        48990        48984        48993        48986
     8.86700        48994        48997        49004        49005        49014
     8.88300        49008        48996        49012        49002        48996
     8.90000        49012        49009        49000        48989        48994
     8.91700        48996        48992        48986        48977        48970
     8.93300        48964        48962        48966        48952        48956
     8.95000        48952        48946        48940        48932        48937
     8.96700        48922        48916        48914        48914        48902
     8.98300        48900        48909        48889        48888        48878
     9.00000        48880        48874        48861        48874        48858
     9.01700        48861        48856        48849        48845        48840
     9.03300        48845        48836        48826        48830        48826
     9.05000        48826        48820        48810        48809        48808
     9.06700        48812        48814        48801        48809        48814
     9.08300        48805        48800        48798        48796        48801
     9.10000        48792        48794        48784        48790        48781
     9.11700        48781        48777        48788        48773        48772
     9.13300        48782        48764        48770        48772        48772
     9.15000        48764        48765        48760        48778        48765
     9.16700        48765        48756        48750        48761        48752
     9.18300        48754        48753        48748        48750        48741
     9.20000        48734        48738        48752        48742        48748
     9.21700        48740        48753        48744        48738        48742
     9.23300        48740        48738        48742        48740        48738
     9.25000        48732        48740        48738        48736        48738
     9.26700        48742        48728        48736        48733        48721
     9.28300        48729        48732        48732        48736        48734
     9.30000        48734        48724        48737        48741        48732
     9.31700        48742        48742        48744        48746        48742
     9.33300        48750        48750        48738        48749        48752
     9.35000        48745        48753        48749        48750        48750
     9.36700        48753        48754        48752        48749        48758
     9.38300        48761        48752        48761        48761        48761
     9.40000        48769        48765        48772        48760        48762
     9.41700        48760        48762        48761        48770        48762
     9.43300        48758        48753        48765        48758        48761
     9.45000        48770        48769        48770        48765        48764
     9.46700        48770        48768        48764        48764        48761
     9.48300        48765        48768        48765        48766        48764
     9.50000        48769        48766        48768        48757        48772
     9.51700        48770        48757        48760        48762        48756
     9.53300        48752        48750        48757        48768        48756
     9.55000        48757        48753        48768        48760        48746
     9.56700        48750        48760        48758        48758        48753
     9.58300        48758        48753        48757        48750        48754
     9.60000        48754        48754        48754        48749        48750
     9.61700        48749        48749        48746        48744        48750
     9.63300        48741        48744        48749        48738        48742
     9.65000        48744        48744        48738        48738        48740
     9.66700        48737        48729        48741        48733        48733
     9.68300        48736        48732        48725        48734        48736
     9.70000        48737        48724        48740        48730        48725
     9.71700        48736        48733        48726        48722        48726
     9.73300        48726        48724        48721        48713        48716
     9.75000        48713        48728        48721        48732        48730
     9.76700        48718        48725        48713        48714        48718
     9.78300        48728        48720        48722        48726        48728
     9.80000        48732        48729        48736        48742        48734
     9.81700        48733        48740        48746        48741        48750
     9.83300        48742        48745        48748        48760        48766
     9.85000        48762        48761        48765        48772        48776
     9.86700        48776        48760        48777        48781        48782
     9.88300        48781        48781        48788        48792        48789
     9.90000        48796        48797        48800        48794        48794
     9.91700        48786        48790        48796        48792        48797
     9.93300        48797        48794        48786        48793        48792
     9.95000        48790        48784        48785        48793        48786
     9.96700        48793        48782        48784        48784        48778
     9.98300        48786        48772        48772        48769        48770
    10.00000        48769        48766        48764        48766        48772
    10.01700        48769        48772        48762        48758        48765
    10.03300        48761        48758        48761        48756        48748
    10.05000        48758        48753        48744        48748        48746
    10.06700        48745        48752        48750        48738        48744
    10.08300        48742        48740        48734        48738        48740
    10.10000        48737        48737        48740        48728        48732
    10.11700        48728        48733        48726        48718        48724
    10.13300        48724        48718        48725        48718        48721
    10.15000        48725        48724        48722        48720        48714
    10.16700        48716        48708        48713        48713        48713
    10.18300        48714        48714        48721        48721        48720
    10.20000        48706        48722        48714        48717        48713
    10.21700        48722        48713        48718        48718        48710
    10.23300        48720        48712        48708        48716        48706
    10.25000        48710        48704        48718        48706        48712
    10.26700        48704        48710        48705        48712        48713
    10.28300        48698        48706        48712        48698        48710
    10.30000        48713        48709        48713        48700        48705
    10.31700        48706        48709        48702        48705        48708
    10.33300        48705        48701        48697        48698        48700
    10.35000        48710        48702        48706        48704        48705
    10.36700        48712        48718        48710        48716        48710
    10.38300        48725        48729        48726        48725        48733
    10.40000        48740        48736        48748        48753        48760
    10.41700        48760        48765        48772        48766        48765
    10.43300        48786        48800        48793        48804        48806
    10.45000        48810        48814        48816        48829        48830
    10.46700        48834        48841        48845        48849        48858
    10.48300        48856        48857        48866        48866        48873
    10.50000        48882        48878        48880        48892        48886
    10.51700        48898        48900        48910        48914        48928
    10.53300        48926        48934        48952        48965        48981
    10.55000        49002        49014        49034        49056        49077
    10.56700        49103        49121        49149        49179        49211
    10.58300        49255        49277        49326        49359        49398
    10.60000        49442        49490        49531        49574        49633
    10.61700        49675        49718        49778        49833        49869
    10.63300        49918        49963        50011        50051        50099
    10.65000        50138        50189        50214        50250        50289
    10.66700        50329        50354        50381        50399        50423
    10.68300        50441        50462        50461        50475        50489
    10.70000        50495        50493        50497        50483        50482
    10.71700        50454        50445        50441        50422        50393
    10.73300        50383        50349        50325        50299        50269
    10.75000        50245        50210        50174        50149        50107
    10.76700        50078        50043        50014        49978        49942
    10.78300        49913        49878        49845        49809        49783
    10.80000        49743        49706        49685        49637        49610
    10.81700        49582        49547        49518        49498        49463
    10.83300        49443        49409        49385        49365        49349
    10.85000        49306        49291        49274        49250        49233
    10.86700        49210        49197        49178        49155        49137
    10.88300        49117        49110        49085        49074        49068
    10.90000        49048        49046        49037        49022        49012
    10.91700        49008        48992        48986        48980        48974
    10.93300        48965        48960        48960        48945        48944
    10.95000        48948        48937        48933        48941        48930
    10.96700        48933        48930        48921        48914        48920
    10.98300        48921        48912        48900        48902        48893
    11.00000        48897        48892        48889        48888        48882
    11.01700        48882        48880        48874        48873        48877
    11.03300        48870        48868        48862        48860        48857
    11.05000        48852        48856        48846        48840        48844
    11.06700        48838        48846        48833        48834        48824
    11.08300        48826        48817        48826        48818        48820
    11.10000        48818        48804        48810        48812        48805
    11.11700        48802        48806        48801        48801        48806
    11.13300        48806        48802        48797        48808        48800
    11.15000        48804        48813        48824        48816        48821
    11.16700        48836        48828        48845        48845        48841
    11.18300        48838        48845        48854        48862        48852
    11.20000        48865        48865        48857        48877        48880
    11.21700        48872        48872        48881        48882        48880
    11.23300        48888        48884        48873        48881        48870
    11.25000        48870        48870        48870        48872        48873
    11.26700        48866        48868        48858        48864        48864
    11.28300        48862        48866        48861        48860        48864
    11.30000        48853        48860        48849        48852        48840
    11.31700        48850        48856        48852        48852        48850
    11.33300        48853        48849        48844        48864        48869
    11.35000        48864        48860        48874        48866        48872
    11.36700        48878        48877        48878        48880        48890
    11.38300        48876        48892        48873        48881        48889
    11.40000        48886        48886        48889        48888        48889
    11.41700        48881        48874        48877        48872        48873
    11.43300        48872        48866        48864        48866        48861
    11.45000        48857        48848        48848        48854        48848
    11.46700        48853        48858        48842        48848        48837
    11.48300        48837        48837        48836        48830        48822
    11.50000        48820        48818        48805        48812        48800
    11.51700        48800        48798        48793        48790        48792
    11.53300        48785        48788        48793        48784        48788
    11.55000        48781        48781        48777        48784        48793
    11.56700        48792        48794        48800        48806        48813
    11.58300        48813        48825        48836        48845        48854
    11.60000        48874        48884        48900        48910        48933
    11.61700        48949        48970        48997        49014        49038
    11.63300        49054        49085        49109        49131        49153
    11.65000        49190        49221        49246        49274        49309
    11.66700        49329        49361        49379        49411        49417
    11.68300        49446        49474        49497        49511        49527
    11.70000        49553        49567        49578        49594        49607
    11.71700        49605        49615        49622        49625        49630
    11.73300        49619        49617        49623        49613        49605
    11.75000        49603        49589        49586        49570        49563
    11.76700        49549        49549        49533        49511        49503
    11.78300        49485        49462        49455        49441        49429
    11.80000        49402        49397        49367        49350        49347
    11.81700        49335        49313        49290        49281        49265
    11.83300        49245        49233        49203        49202        49177
    11.85000        49165        49153        49141        49123        49105
    11.86700        49093        49073        49068        49060        49046
    11.88300        49033        49024        49018        48989        48990
    11.90000        48968        48962        48961        48942        48929
    11.91700        48926        48924        48909        48910        48892
    11.93300        48888        48884        48873        48869        48861
    11.95000        48858        48849        48853        48842        48837
    11.96700        48837        48830        48830        48824        48822
    11.98300        48806        48801        48796        48802        48801
    12.00000        48794        48792        48792        48780        48781
    12.01700        48780        48774        48781        48774        48768
    12.03300        48770        48765        48766        48756        48764
    12.05000        48768        48754        48761        48760        48753
    12.06700        48752        48753        48754        48750        48749
    12.08300        48756        48749        48740        48744        48744
    12.10000        48740        48742        48737        48737        48741
    12.11700        48734        48730        48726        48725        48730
    12.13300        48734        48734        48733        48732        48722
    12.15000        48722        48718        48724        48726        48725
    12.16700        48710        48717        48717        48718        48718
    12.18300        48717        48720        48706        48712        48708
    12.20000        48708        48716        48705        48698        48710
    12.21700        48698        48701        48706        48696        48702
    12.23300        48698        48697        48705        48700        48706
    12.25000        48702        48697        48700        48692        48697
    12.26700        48692        48696        48705        48705        48702
    12.28300        48709        48696        48696        48692        48696
    12.30000        48690        48688        48694        48701        48693
    12.31700        48692        48684        48694        48697        48700
    12.33300        48692        48694        48693        48704        48705
    12.35000        48692        48702        48710        48704        48706
    12.36700        48705        48718        48714        48716        48716
    12.38300        48728        48724        48720        48726        48729
    12.40000        48732        48732        48741        48745        48749
    12.41700        48756        48752        48766        48757        48768
    12.43300        48769        48768        48781        48778        48781
    12.45000        48788        48788        48802        48805        48805
    12.46700        48812        48817        48830        48836        48842
    12.48300        48845        48852        48865        48858        48862
    12.50000        48881        48882        48880        48892        48881
    12.51700        48893        48894        48893        48898        48901
    12.53300        48902        48901        48909        48904        48913
    12.55000        48902        48908        48905        48909        48904
    12.56700        48906        48902        48901        48898        48884
    12.58300        48893        48896        48893        48888        48888
    12.60000        48886        48889        48877        48866        48864
    12.61700        48872        48869        48857        48854        48854
    12.63300        48848        48850        48845        48836        48830
    12.65000        48829        48826        48821        48826        48822
    12.66700        48816        48814        48814        48812        48813
    12.68300        48814        48796        48796        48796        48789
    12.70000        48794        48782        48788        48785        48784
    12.71700        48780        48776        48768        48758        48780
    12.73300        48777        48772        48762        48764        48761
    12.75000        48762        48768        48758        48756        48754
    12.76700        48756        48752        48748        48750        48733
    12.78300        48754        48746        48744        48744        48748
    12.80000        48733        48738        48734        48738        48738
    12.81700        48737        48738        48737        48730        48733
    12.83300        48740        48742        48738        48737        48738
    12.85000        48748        48750        48742        48752        48750
    12.86700        48760        48757        48752        48757        48760
    12.88300        48762        48768        48774        48785        48792
    12.90000        48796        48794        48796        48812        48822
    12.91700        48821        48833        48838        48842        48844
    12.93300        48849        48866        48884        48878        48893
    12.95000        48896        48921        48921        48944        48944
    12.96700        48948        48965        48968        48992        48988
    12.98300        49002        49006        49024        49029        49034
    13.00000        49044        49040        49062        49061        49074
    13.01700        49073        49080        49081        49085        49081
    13.03300        49086        49090        49076        49087        49080
    13.05000        49099        49083        49080        49073        49070
    13.06700        49066        49068        49057        49057        49053
    13.08300        49037        49038        49032        49026        49017
    13.10000        49004        49000        48989        48990        48969
    13.11700        48968        48973        48953        48948        48941
    13.13300        48933        48932        48925        48914        48906
    13.15000        48894        48884        48884        48881        48876
    13.16700        48872        48864        48856        48850        48842
    13.18300        48832        48826        48826        48820        48820
    13.20000        48814        48810        48802        48813        48810
    13.21700        48808        48801        48801        48806        48809
    13.23300        48804        48806        48813        48808        48804
    13.25000        48805        48806        48805        48806        48818
    13.26700        48818        48813        48817        48810        48813
    13.28300        48816        48824        48808        48814        48808
    13.30000        48806        48814        48810        48804        48804
    13.31700        48809        48800        48796        48798        48793
    13.33300        48796        48785        48793        48786        48786
    13.35000        48788        48778        48778        48785        48774
    13.36700        48768        48769        48764        48769        48769
    13.38300        48764        48764        48757        48757        48762
    13.40000        48758        48756        48753        48757        48744
    13.41700        48752        48748        48737        48736        48749
    13.43300        48742        48736        48728        48738        48726
    13.45000        48725        48722        48724        48722        48724
    13.46700        48724        48728        48729        48721        48712
    13.48300        48710        48712        48700        48708        48702
    13.50000        48706        48704        48705        48702        48694
    13.51700        48705        48700        48697        48705        48697
    13.53300        48689        48690        48694        48685        48688
    13.55000        48686        48690        48698        48692        48678
    13.56700        48686        48682        48685        48686        48689
    13.58300        48690        48686        48682        48684        48676
    13.60000        48685        48670        48686        48693        48680
    13.61700        48673        48678        48677        48682        48678
    13.63300        48677        48682        48680        48680        48686
    13.65000        48682        48681        48673        48685        48680
    13.66700        48677        48669        48682        48666        48674
    13.68300        48682        48668        48678        48676        48680
    13.70000        48673        48669        48680        48674        48668
    13.71700        48668        48665        48669        48673        48678
    13.73300        48673        48672        48680        48680        48674
    13.75000        48676        48689        48672        48672        48681
    13.76700        48673        48668        48668        48670        48669
    13.78300        48684        48685        48668        48674        48661
    13.80000        48668        48676        48678        48668        48674
    13.81700        48680        48678        48676        48673        48674
    13.83300        48662        48664        48670        48665        48665
    13.85000        48664        48660        48670        48653        48668
    13.86700        48658        48658        48661        48657        48656
    13.88300        48654        48649        48654        48657        48654
    13.90000        48662        48653        48664        48650        48664
    13.91700        48652        48664        48657        48654        48665
    13.93300        48656        48664        48653        48664        48654
    13.95000        48661        48665        48661        48657        48653
    13.96700        48656        48657        48665        48657        48662
    13.98300        48680        48670        48666        48668        48664
    14.00000        48668        48669        48669        48681        48668
    14.01700        48673        48673        48673        48670        48670
    14.03300        48669        48674        48662        48669        48692
    14.05000        48697        48684        48662        48674        48678
    14.06700        48692        48688        48689        48688        48702
    14.08300        48708        48709        48720        48712        48729
    14.10000        48746        48744        48760        48760        48778
    14.11700        48786        48805        48818        48830        48848
    14.13300        48865        48869        48886        48909        48922
    14.15000        48937        48952        48973        48985        48997
    14.16700        49012        49032        49048        49053        49082
    14.18300        49089        49107        49119        49131        49145
    14.20000        49146        49166        49166        49194        49189
    14.21700        49198        49215        49225        49235        49230
    14.23300        49247        49242        49254        49271        49271
    14.25000        49263        49278        49285        49290        49293
    14.26700        49294        49293        49297        49309        49306
    14.28300        49310        49306        49307        49314        49319
    14.30000        49321        49323        49319        49318        49317
    14.31700        49318        49323        49318        49321        49321
    14.33300        49333        49318        49322        49322        49322
    14.35000        49311        49317        49314        49299        49298
    14.36700        49297        49297        49311        49282        49287
    14.38300        49277        49270        49258        49254        49258
    14.40000        49251        49250        49241        49237        49231
    14.41700        49230        49225        49225        49206        49215
    14.43300        49197        49203        49198        49183        49179
    14.45000        49178        49173        49187        49161        49165
    14.46700        49162        49158        49150        49151        49147
    14.48300        49143        49137        49134        49131        49137
    14.50000        49113        49118        49118        49117        49111
    14.51700        49119        49115        49106        49105        49091
    14.53300        49090        49086        49091        49090        49087
    14.55000        49080        49076        49073        49061        49062
    14.56700        49054        49066        49060        49042        49046
    14.58300        49040        49049        49045        49041        49029
    14.60000        49030        49021        49014        49021        49010
    14.61700        49004        48998        49004        48986        48990
    14.63300        49000        48986        48990        48982        48973
    14.65000        48972        48974        48965        48964        48960
    14.66700        48958        48956        48962        48960        48952
    14.68300        48946        48953        48945        48942        48933
    14.70000        48933        48937        48936        48929        48933
    14.71700        48925        48929        48918        48912        48914
    14.73300        48922        48913        48914        48905        48900
    14.75000        48905        48901        48893        48892        48898
    14.76700        48890        48886        48882        48880        48878
    14.78300        48885        48877        48873        48877        48874
    14.80000        48870        48872        48861        48869        48865
    14.81700        48872        48857        48854        48848        48852
    14.83300        48853        48853        48849        48845        48837
    14.85000        48845        48844        48845        48840        48830
    14.86700        48833        48821        48825        48829        48816
    14.88300        48832        48821        48826        48821        48828
    14.90000        48822        48822        48816        48822        48816
    14.91700        48820        48813        48816        48822        48813
    14.93300        48801        48813        48804        48805        48790
    14.95000        48802        48801        48810        48808        48801
    14.96700        48802        48796        48798        48798        48801
    14.98300        48792        48788        48792        48785        48789
    15.00000        48781        48785        48784        48780        48772
    15.01700        48776        48778        48773        48772        48765
    15.03300        48770        48758        48766        48768        48753
    15.05000        48761        48753        48754        48752        48758
    15.06700        48756        48750        48745        48744        48752
    15.08300        48742        48738        48734        48733        48726
    15.10000        48732        48737        48737        48732        48732
    15.11700        48729        48740        48721        48729        48718
    15.13300        48725        48729        48720        48720        48721
    15.15000        48717        48710        48713        48706        48714
    15.16700        48710        48704        48702        48712        48713
    15.18300        48720        48704        48709        48706        48704
    15.20000        48696        48706        48701        48700        48702
    15.21700        48693        48697        48694        48690        48692
    15.23300        48693        48689        48698        48698        48690
    15.25000        48689        48697        48700        48689        48688
    15.26700        48680        48682        48689        48696        48689
    15.28300        48682        48697        48693        48698        48696
    15.30000        48704        48702        48712        48713        48722
    15.31700        48729        48738        48745        48761        48762
    15.33300        48773        48788        48805        48826        48830
    15.35000        48854        48858        48881        48888        48909
    15.36700        48916        48914        48929        48941        48946
    15.38300        48945        48962        48974        48969        48970
    15.40000        48970        48976        48974        48984        48988
    15.41700        48988        48981        48990        48986        48981
    15.43300        48962        48977        48972        48969        48978
    15.45000        48957        48964        48964        48952        48950
    15.46700        48945        48953        48937        48934        48942
    15.48300        48930        48925        48913        48916        48908
    15.50000        48905        48905        48902        48901        48894
    15.51700        48882        48880        48880        48877        48868
    15.53300        48873        48876        48872        48852        48856
    15.55000        48838        48854        48844        48834        48834
    15.56700        48838        48836        48836        48830        48824
    15.58300        48820        48822        48817        48808        48814
    15.60000        48817        48812        48822        48813        48798
    15.61700        48802        48805        48802        48801        48806
    15.63300        48798        48802        48801        48794        48800
    15.65000        48798        48802        48802        48796        48792
    15.66700        48796        48790        48796        48788        48794
    15.68300        48797        48802        48790        48793        48793
    15.70000        48785        48797        48797        48798        48793
    15.71700        48798        48784        48790        48796        48790
    15.73300        48792        48782        48786        48786        48782
    15.75000        48786        48784        48793        48777        48785
    15.76700        48782        48785        48790        48784        48778
    15.78300        48781        48776        48781        48776        48776
    15.80000        48776        48769        48766        48772        48765
    15.81700        48766        48772        48764        48772        48764
    15.83300        48760        48764        48761        48754        48764
    15.85000        48764        48756        48754        48756        48752
    15.86700        48750        48753        48733        48757        48744
    15.88300        48734        48740        48740        48733        48733
    15.90000        48724        48722        48733        48720        48730
    15.91700        48732        48720        48724        48724        48724
    15.93300        48714        48726        48717        48708        48722
    15.95000        48717        48712        48709        48713        48709
    15.96700        48705        48704        48694        48702        48698
    15.98300        48708        48702        48693        48697        48697
    16.00000        48685        48681        48688        48694        48686
    16.01700        48686        48677        48685        48688        48680
    16.03300        48678        48681        48682        48670        48670
    16.05000        48664        48676        48677        48653        48669
    16.06700        48662        48666        48666        48668        48668
    16.08300        48666        48654        48657        48658        48665
    16.10000        48652        48658        48669        48666        48664
    16.11700        48656        48662        48646        48657        48661
    16.13300        48653        48658        48652        48654        48650
    16.15000        48657        48648        48652        48661        48656
    16.16700        48653        48654        48650        48649        48664
    16.18300        48650        48650        48657        48654        48649
    16.20000        48649        48650        48649        48641        48650
    16.21700        48641        48641        48644        48646        48636
    16.23300        48640        48641        48646        48648        48640
    16.25000        48637        48642        48636        48636        48628
    16.26700        48632        48638        48641        48625        48636
    16.28300        48641        48641        48642        48650        48642
    16.30000        48646        48645        48640        48637        48638
    16.31700        48645        48637        48645        48641        48641
    16.33300        48644        48644        48646        48637        48632
    16.35000        48648        48640        48642        48640        48646
    16.36700        48652        48646        48634        48645        48637
    16.38300        48649        48652        48649        48660        48644
    16.40000        48638        48649        48636        48650        48637
    16.41700        48644        48644        48650        48648        48648
    16.43300        48649        48640        48652        48641        48653
    16.45000        48642        48641        48649        48645        48648
    16.46700        48636        48645        48645        48633        48646
    16.48300        48646        48640        48640        48633        48644
    16.50000        48650        48641        48641        48640        48642
    16.51700        48645        48637        48645        48644        48640
    16.53300        48640        48640        48648        48644        48642
    16.55000        48653        48638        48640        48648        48640
    16.56700        48646        48644        48649        48648        48660
    16.58300        48652        48649        48649        48648        48666
    16.60000        48653        48664        48666        48668        48668
    16.61700        48670        48666        48682        48670        48686
    16.63300        48676        48678        48677        48674        48674
    16.65000        48681        48681        48682        48678        48692
    16.66700        48682        48694        48698        48704        48705
    16.68300        48710        48704        48710        48717        48728
    16.70000        48720        48722        48720        48730        48734
    16.71700        48732        48740        48737        48745        48745
    16.73300        48750        48753        48760        48758        48756
    16.75000        48766        48765        48765        48777        48773
    16.76700        48774        48774        48772        48782        48781
    16.78300        48786        48785        48792        48789        48777
    16.80000        48789        48794        48797        48800        48793
    16.81700        48796        48794        48793        48798        48796
    16.83300        48798        48797        48793        48798        48802
    16.85000        48797        48793        48793        48790        48788
    16.86700        48788        48782        48786        48792        48772
    16.88300        48774        48772        48768        48764        48754
    16.90000        48761        48757        48752        48754        48745
    16.91700        48744        48745        48736        48742        48737
    16.93300        48733        48725        48728        48722        48724
    16.95000        48714        48718        48720        48705        48712
    16.96700        48709        48702        48710        48693        48700
    16.98300        48696        48689        48686        48682        48684
    17.00000        48673        48686        48685        48680        48660
    17.01700        48666        48668        48664        48656        48660
    17.03300        48660        48654        48652        48649        48645
    17.05000        48654        48654        48644        48650        48648
    17.06700        48645        48652        48636        48646        48645
    17.08300        48636        48633        48640        48634        48632
    17.10000        48629        48622        48632        48632        48628
    17.11700        48629        48626        48620        48636        48638
    17.13300        48624        48630        48629        48620        48624
    17.15000        48625        48624        48624        48624        48624
    17.16700        48618        48622        48624        48624        48621
    17.18300        48626        48630        48625        48616        48624
    17.20000        48620        48633        48620        48628        48624
    17.21700        48624        48628        48620        48618        48617
    17.23300        48616        48621        48616        48622        48628
    17.25000        48614        48621        48613        48612        48604
    17.26700        48609        48614        48608        48608        48608
    17.28300        48604        48609        48614        48604        48605
    17.30000        48616        48606        48609        48609        48612
    17.31700        48614        48606        48618        48616        48612
    17.33300        48616        48614        48613        48614        48610
    17.35000        48606        48614        48610        48612        48609
    17.36700        48612        48608        48617        48613        48616
    17.38300        48616        48618        48616        48625        48601
    17.40000        48606        48610        48610        48620        48621
    17.41700        48624        48604        48621        48613        48609
    17.43300        48613        48617        48614        48617        48609
    17.45000        48613        48620        48617        48622        48614
    17.46700        48610        48618        48617        48620        48624
    17.48300        48621        48620        48617        48613        48618
    17.50000        48612        48610        48613        48609        48614
    17.51700        48617        48618        48612        48610        48617
    17.53300        48610        48614        48610        48613        48620
    17.55000        48624        48616        48618        48616        48617
    17.56700        48616        48608        48613        48613        48612
    17.58300        48628        48621        48617        48621        48621
    17.60000        48617        48616        48622        48620        48622
    17.61700        48624        48630        48634        48634        48632
    17.63300        48640        48650        48677        48684        48688
    17.65000        48712        48744        48762        48782        48813
    17.66700        48836        48870        48901        48940        48976
    17.68300        49010        49044        49073        49119        49155
    17.70000        49182        49217        49255        49286        49322
    17.71700        49350        49375        49394        49426        49447
    17.73300        49469        49482        49507        49511        49533
    17.75000        49541        49553        49558        49581        49582
    17.76700        49579        49594        49594        49606        49598
    17.78300        49611        49599        49603        49590        49593
    17.80000        49597        49574        49585        49570        49558
    17.81700        49561        49561        49543        49538        49529
    17.83300        49511        49510        49502        49495        49473
    17.85000        49466        49466        49454        49438        49426
    17.86700        49411        49403        49389        49381        49374
    17.88300        49354        49341        49330        49314        49321
    17.90000        49293        49279        49278        49262        49251
    17.91700        49250        49247        49226        49205        49209
    17.93300        49198        49174        49169        49159        49146
    17.95000        49145        49131        49122        49115        49107
    17.96700        49097        49091        49076        49061        49054
    17.98300        49057        49046        49036        49034        49014
    18.00000        49020        49005        49012        48997        48989
    18.01700        48994        48982        48966        48966        48960
    18.03300        48948        48945        48948        48924        48918
    18.05000        48925        48913        48910        48902        48908
    18.06700        48889        48900        48873        48880        48870
    18.08300        48868        48856        48857        48848        48850
    18.10000        48841        48832        48825        48824        48806
    18.11700        48813        48804        48802        48797        48792
    18.13300        48789        48786        48790        48786        48780
    18.15000        48781        48770        48774        48778        48772
    18.16700        48769        48760        48761        48757        48756
    18.18300        48760        48761        48760        48758        48753
    18.20000        48752        48753        48754        48753        48750
    18.21700        48746        48737        48746        48749        48753
    18.23300        48753        48750        48750        48752        48758
    18.25000        48757        48753        48753        48752        48753
    18.26700        48757        48744        48750        48752        48749
    18.28300        48746        48750        48748        48742        48742
    18.30000        48738        48733        48734        48725        48724
    18.31700        48724        48721        48718        48720        48702
    18.33300        48717        48709        48704        48700        48701
    18.35000        48701        48696        48696        48696        48693
    18.36700        48697        48689        48696        48681        48689
    18.38300        48690        48681        48684        48686        48681
    18.40000        48673        48670        48680        48674        48678
    18.41700        48673        48669        48665        48668        48668
    18.43300        48668        48666        48669        48654        48661
    18.45000        48668        48649        48666        48650        48662
    18.46700        48650        48650        48650        48645        48662
    18.48300        48648        48654        48648        48646        48653
    18.50000        48648        48642        48646        48648        48638
    18.51700        48641        48641        48644        48633        48644
    18.53300        48628        48633        48630        48636        48637
    18.55000        48624        48622        48636        48624        48630
    18.56700        48628        48621        48624        48618        48616
    18.58300        48625        48617        48624        48624        48624
    18.60000        48620        48614        48625        48622        48609
    18.61700        48620        48622        48612        48612        48610
    18.63300        48621        48609        48610        48609        48610
    18.65000        48610        48606        48612        48613        48620
    18.66700        48614        48613        48612        48616        48610
    18.68300        48605        48608        48608        48609        48605
    18.70000        48608        48612        48614        48617        48613
    18.71700        48617        48621        48616        48624        48617
    18.73300        48613        48618        48630        48620        48622
    18.75000        48614        48620        48626        48624        48625
    18.76700        48625        48629        48617        48630        48626
    18.78300        48622        48630        48620        48633        48620
    18.80000        48621        48621        48620        48620        48617
    18.81700        48621        48632        48625        48625        48626
    18.83300        48618        48614        48620        48625        48621
    18.85000        48625        48618        48629        48624        48618
    18.86700        48622        48629        48636        48633        48629
    18.88300        48633        48641        48632        48629        48630
    18.90000        48629        48638        48636        48640        48632
    18.91700        48633        48634        48618        48634        48628
    18.93300        48634        48634        48620        48636        48622
    18.95000        48629        48629        48626        48632        48632
    18.96700        48626        48624        48626        48629        48622
    18.98300        48614        48617        48618        48621        48625
    19.00000        48622        48617        48632        48624        48629
    19.01700        48625        48621        48620        48625        48628
    19.03300        48624        48624        48622        48622        48632
    19.05000        48621        48626        48630        48625        48628
    19.06700        48633        48630        48622        48636        48629
    19.08300        48632        48630        48640        48632        48634
    19.10000        48630        48637        48638        48649        48646
    19.11700        48646        48648        48641        48640        48654
    19.13300        48653        48653        48664        48670        48672
    19.15000        48680        48670        48688        48677        48690
    19.16700        48689        48685        48702        48708        48717
    19.18300        48721        48733        48734        48741        48744
    19.20000        48749        48750        48770        48776        48774
    19.21700        48778        48786        48784        48788        48805
    19.23300        48805        48805        48804        48802        48818
    19.25000        48818        48825        48826        48828        48828
    19.26700        48822        48840        48830        48829        48836
    19.28300        48834        48841        48836        48836        48840
    19.30000        48825        48832        48834        48821        48834
    19.31700        48832        48821        48828        48825        48829
    19.33300        48822        48826        48809        48809        48802
    19.35000        48804        48800        48805        48790        48801
    19.36700        48782        48784        48785        48774        48774
    19.38300        48762        48766        48757        48761        48752
    19.40000        48749        48749        48745        48741        48745
    19.41700        48736        48725        48734        48732        48720
    19.43300        48717        48718        48717        48717        48712
    19.45000        48706        48706        48700        48694        48692
    19.46700        48688        48693        48680        48684        48677
    19.48300        48681        48676        48676        48684        48669
    19.50000        48666        48666        48662        48658        48664
    19.51700        48654        48658        48649        48662        48646
    19.53300        48642        48640        48641        48653        48638
    19.55000        48644        48641        48637        48633        48645
    19.56700        48636        48629        48632        48634        48632
    19.58300        48630        48625        48628        48625        48622
    19.60000        48628        48616        48620        48617        48624
    19.61700        48621        48620        48617        48620        48622
    19.63300        48626        48624        48620        48622        48629
    19.65000        48622        48629        48625        48621        48617
    19.66700        48616        48620        48626        48620        48622
    19.68300        48617        48622        48626        48624        48620
    19.70000        48626        48622        48617        48622        48624
    19.71700        48609        48620        48618        48621        48613
    19.73300        48625        48622        48614        48616        48618
    19.75000        48616        48612        48604        48606        48609
    19.76700        48605        48617        48613        48609        48609
    19.78300        48618        48609        48606        48606        48618
    19.80000        48613        48617        48618        48616        48605
    19.81700        48617        48616        48616        48616        48608
    19.83300        48606        48609        48614        48608        48609
    19.85000        48605        48608        48609        48597        48610
    19.86700        48610        48612        48618        48600        48601
    19.88300        48608        48608        48605        48605        48598
    19.90000        48602        48598        48598        48602        48597
    19.91700        48594        48600        48593        48590        48596
    19.93300        48585        48589        48590        48581        48585
    19.95000        48588        48574        48580        48592        48573
    19.96700        48570        48578        48578        48581        48582
    19.98300        48584        48584        48569        48582        48577
    19.99700        48577        48576        48574        48586
##END= 
