##TITLE= Headspace from ripe guava
##JCAMP-DX= 4.24
##DATA TYPE= GAS CHROMATOGRAPH
##$ASDF TYPE= FIX
##ORIGIN= HP 5890 GC TABULATED file
##OWNER= Dept of Chem, UWI, Mona, JAMAICA
##DATE= 11-26-1995
##TIME= 08:51:51
##NPOINTS=   6003
##XUNITS= TIME
##YUNITS= ARBITRARY
##FIRSTX=      0.00000
##LASTX=     20.00700
##XFACTOR= 1.0
##YFACTOR= 1.0
##FIRSTY=      52530
##MAXY=    5427490
##MINY=      49855
##XYDATA= (X++(Y..Y))
     0.00000        52530        52521        52517        52514        52517
     0.01700        52519        52510        52502        52471        52437
     0.03300        52331        52197        52037        51853        51685
     0.05000        51506        51341        51162        51014        50854
     0.06700        50723        50603        50486        50385        50297
     0.08300        50226        50151        50097        50039        49995
     0.10000        49969        49941        49918        49886        49882
     0.11700        49867        49869        49855        49858        49865
     0.13300        49866        49877        49883        49890        49890
     0.15000        49903        49929        49947        49971        49991
     0.16700        50011        50025        50033        50065        50090
     0.18300        50117        50154        50174        50210        50229
     0.20000        50271        50303        50325        50353        50402
     0.21700        50430        50461        50481        50509        50539
     0.23300        50562        50599        50619        50654        50662
     0.25000        50686        50710        50730        50751        50789
     0.26700        50814        50846        50877        50905        50919
     0.28300        50963        50982        51011        51045        51067
     0.30000        51095        51115        51147        51183        51209
     0.31700        51230        51255        51281        51310        51334
     0.33300        51363        51379        51399        51430        51447
     0.35000        51467        51485        51507        51517        51539
     0.36700        51553        51586        51605        51623        51637
     0.38300        51655        51670        51683        51707        51725
     0.40000        51758        51757        51783        51794        51811
     0.41700        51827        51850        51861        51882        51909
     0.43300        51919        51922        51933        51954        51955
     0.45000        51971        51982        52017        52022        52018
     0.46700        52045        52042        52073        52075        52094
     0.48300        52105        52115        52126        52125        52150
     0.50000        52165        52173        52187        52191        52210
     0.51700        52217        52229        52245        52266        52295
     0.53300        52331        52429        52575        52685        52768
     0.55000        53030        53904        56665        65109        91401
     0.56700       161249       301415       712699      1588698      2592884
     0.58300      3482497      4193656      4692471      5009719      5209636
     0.60000      5340980      5419098      5427490      5324897      5058032
     0.61700      4603574      4035774      3508688      3111676      2863253
     0.63300      2736201      2683543      2642652      2616376      2586796
     0.65000      2528921      2481720      2419867      2305830      2105676
     0.66700      1820025      1488334      1162041       880794       662549
     0.68300       507709       388838       309410       255221       207121
     0.70000       176753       161728       154651       150040       146209
     0.71700       142959       139867       136901       133426       129967
     0.73300       126178       121911       117657       114809       111527
     0.75000       103777        97167        92931        89692        87035
     0.76700        84870        84179        81919        79347        77336
     0.78300        75545        74165        73260        72587        72127
     0.80000        71713        71268        70822        70398        69960
     0.81700        70020        72695        72808        70784        69247
     0.83300        68403        68991        72327        79982        91741
     0.85000       105470       118541       129519       137723       143124
     0.86700       146353       147805       147528       145217       140367
     0.88300       132941       123394       112847       102743        93506
     0.90000        85709        79577        74937        71480        68836
     0.91700        66703        65209        64106        63524        63058
     0.93300        62672        62337        62074        61844        61624
     0.95000        61429        61269        61152        61134        61214
     0.96700        61393        61650        61949        62200        62358
     0.98300        62425        62428        62394        62314        62184
     1.00000        62053        61908        61817        61845        62090
     1.01700        62645        63630        64885        66494        68050
     1.03300        69299        70244        70915        71199        71281
     1.05000        71280        71441        72036        73245        75417
     1.06700        77878        80646        82859        84506        85364
     1.08300        85525        85112        84268        83074        81507
     1.10000        79761        77957        75805        73747        71473
     1.11700        69308        67066        65187        63437        62098
     1.13300        61058        60362        60010        59949        60193
     1.15000        60658        61280        61982        62685        63325
     1.16700        63841        64229        64514        64593        64542
     1.18300        64322        63986        63441        62854        62157
     1.20000        61409        60696        60030        59433        58924
     1.21700        58528        58203        57976        57871        57929
     1.23300        58129        58451        58816        59157        59444
     1.25000        59631        59740        59753        59707        59601
     1.26700        59441        59271        59059        58857        58651
     1.28300        58464        58315        58160        58049        57955
     1.30000        57896        57837        57813        57792        57753
     1.31700        57713        57684        57632        57567        57525
     1.33300        57468        57397        57343        57256        57169
     1.35000        57071        56976        56887        56793        56709
     1.36700        56632        56556        56485        56415        56367
     1.38300        56326        56286        56244        56223        56194
     1.40000        56179        56152        56140        56119        56088
     1.41700        56075        56076        56064        56074        56074
     1.43300        56080        56084        56082        56071        56066
     1.45000        56058        56036        56028        56019        56010
     1.46700        56002        55986        55975        55972        55974
     1.48300        55976        55976        55986        55998        56011
     1.50000        56031        56035        56042        56042        56044
     1.51700        56056        56044        56046        56040        56056
     1.53300        56038        56056        56058        56072        56088
     1.55000        56119        56171        56219        56280        56320
     1.56700        56365        56419        56459        56489        56512
     1.58300        56517        56512        56499        56492        56480
     1.60000        56463        56460        56451        56456        56512
     1.61700        56649        56692        56719        56741        56771
     1.63300        56812        56848        56887        56932        56972
     1.65000        57021        57053        57095        57140        57172
     1.66700        57204        57237        57268        57308        57340
     1.68300        57351        57393        57453        57499        57565
     1.70000        57643        57735        57845        57956        58067
     1.71700        58165        58261        58344        58433        58488
     1.73300        58556        58587        58627        58659        58656
     1.75000        58671        58664        58659        58623        58583
     1.76700        58539        58465        58405        58333        58284
     1.78300        58237        58197        58172        58164        58173
     1.80000        58197        58232        58260        58279        58321
     1.81700        58368        58412        58455        58509        58580
     1.83300        58661        58761        58911        59143        59483
     1.85000        59964        60689        61656        62982        64682
     1.86700        66963        69610        72837        76632        80811
     1.88300        85287        90026        94750        99326       103552
     1.90000       107302       110374       112638       114082       114560
     1.91700       114180       112960       111002       108405       105277
     1.93300       101804        98138        94457        90834        87416
     1.95000        84242        81435        79089        77061        75422
     1.96700        74273        73524        73035        72764        72707
     1.98300        72799        72907        73047        73173        73237
     2.00000        73219        73095        72888        72540        72193
     2.01700        71811        71427        71073        70775        70586
     2.03300        70484        70466        70535        70698        70944
     2.05000        71211        71489        71744        71968        72057
     2.06700        72119        72067        71927        71660        71272
     2.08300        70814        70294        69707        68998        68310
     2.10000        67662        66979        66338        65754        65203
     2.11700        64673        64169        63789        63417        63120
     2.13300        62874        62666        62476        62353        62272
     2.15000        62212        62178        62173        62208        62249
     2.16700        62328        62434        62577        62752        63006
     2.18300        63306        63646        64110        64646        65177
     2.20000        65977        66846        67778        68776        69754
     2.21700        70927        72083        73121        74240        75224
     2.23300        76054        76756        77325        77661        77898
     2.25000        77958        77852        77633        77228        76765
     2.26700        76210        75598        74920        74263        73644
     2.28300        73040        72339        71805        71257        70796
     2.30000        70407        70074        69794        69527        69259
     2.31700        69035        68842        68654        68508        68324
     2.33300        68199        68055        67874        67726        67527
     2.35000        67319        67090        66890        66669        66419
     2.36700        66170        65934        65666        65434        65183
     2.38300        64973        64774        64495        64325        64135
     2.40000        63966        63814        63657        63497        63401
     2.41700        63318        63248        63156        63086        63030
     2.43300        62993        62985        62949        62920        62904
     2.45000        62856        62816        62786        62785        62781
     2.46700        62761        62742        62728        62684        62624
     2.48300        62592        62568        62534        62500        62466
     2.50000        62426        62377        62310        62281        62226
     2.51700        62210        62172        62124        62073        62033
     2.53300        61982        61941        61880        61845        61822
     2.55000        61778        61732        61682        61648        61632
     2.56700        61589        61561        61532        61486        61452
     2.58300        61397        61357        61344        61318        61286
     2.60000        61249        61192        61157        61116        61072
     2.61700        61056        61021        60974        60940        60894
     2.63300        60841        60796        60773        60728        60684
     2.65000        60641        60609        60572        60533        60478
     2.66700        60432        60394        60344        60300        60254
     2.68300        60230        60172        60122        60062        60030
     2.70000        59987        59929        59889        59869        59840
     2.71700        59792        59757        59731        59712        59687
     2.73300        59667        59665        59667        59667        59671
     2.75000        59687        59703        59711        59724        59741
     2.76700        59775        59780        59760        59760        59731
     2.78300        59705        59660        59609        59568        59497
     2.80000        59409        59333        59256        59168        59092
     2.81700        59004        58920        58829        58740        58647
     2.83300        58568        58481        58416        58333        58261
     2.85000        58184        58127        58049        57989        57949
     2.86700        57888        57845        57812        57783        57756
     2.88300        57731        57708        57692        57672        57644
     2.90000        57639        57623        57611        57597        57575
     2.91700        57561        57549        57540        57505        57476
     2.93300        57444        57403        57376        57332        57284
     2.95000        57248        57196        57129        57079        57019
     2.96700        56956        56893        56841        56760        56704
     2.98300        56639        56572        56513        56452        56383
     3.00000        56324        56268        56203        56151        56095
     3.01700        56043        55991        55944        55906        55875
     3.03300        55842        55814        55794        55762        55760
     3.05000        55730        55727        55734        55732        55735
     3.06700        55736        55734        55740        55747        55772
     3.08300        55772        55796        55818        55828        55830
     3.10000        55831        55843        55838        55834        55826
     3.11700        55820        55779        55760        55719        55683
     3.13300        55644        55603        55544        55498        55435
     3.15000        55375        55318        55252        55196        55127
     3.16700        55062        54995        54926        54856        54802
     3.18300        54746        54675        54631        54571        54530
     3.20000        54476        54430        54386        54344        54308
     3.21700        54270        54242        54207        54178        54139
     3.23300        54116        54082        54056        54036        54014
     3.25000        53978        53972        53954        53934        53906
     3.26700        53888        53866        53863        53840        53811
     3.28300        53796        53779        53778        53744        53748
     3.30000        53734        53712        53700        53692        53678
     3.31700        53666        53658        53648        53644        53631
     3.33300        53620        53602        53602        53603        53606
     3.35000        53591        53594        53587        53580        53584
     3.36700        53603        53603        53604        53616        53627
     3.38300        53630        53642        53644        53651        53688
     3.40000        53694        53700        53715        53718        53736
     3.41700        53730        53739        53740        53743        53740
     3.43300        53740        53732        53735        53715        53699
     3.45000        53678        53659        53647        53626        53608
     3.46700        53588        53558        53523        53504        53475
     3.48300        53456        53427        53396        53375        53348
     3.50000        53326        53306        53282        53256        53232
     3.51700        53216        53195        53168        53159        53140
     3.53300        53114        53111        53096        53076        53064
     3.55000        53046        53040        53024        53012        53007
     3.56700        52988        52994        52974        52974        52966
     3.58300        52955        52952        52940        52944        52928
     3.60000        52926        52919        52918        52908        52900
     3.61700        52902        52887        52883        52870        52866
     3.63300        52859        52858        52850        52842        52840
     3.65000        52847        52838        52832        52838        52818
     3.66700        52823        52807        52807        52822        52812
     3.68300        52807        52806        52788        52807        52794
     3.70000        52800        52815        52792        52792        52807
     3.71700        52807        52798        52796        52791        52803
     3.73300        52806        52806        52802        52815        52807
     3.75000        52807        52810        52826        52827        52827
     3.76700        52835        52830        52832        52832        52823
     3.78300        52830        52830        52834        52827        52834
     3.80000        52830        52831        52830        52826        52828
     3.81700        52819        52816        52812        52823        52807
     3.83300        52807        52808        52806        52814        52820
     3.85000        52810        52824        52810        52812        52818
     3.86700        52824        52815        52839        52822        52831
     3.88300        52835        52832        52840        52850        52854
     3.90000        52852        52859        52874        52874        52862
     3.91700        52868        52875        52874        52868        52872
     3.93300        52867        52870        52852        52858        52858
     3.95000        52854        52851        52842        52839        52826
     3.96700        52824        52824        52812        52811        52807
     3.98300        52783        52786        52778        52787        52768
     4.00000        52775        52780        52772        52766        52760
     4.01700        52763        52759        52758        52766        52766
     4.03300        52762        52755        52755        52750        52750
     4.05000        52750        52760        52755        52748        52755
     4.06700        52742        52755        52750        52758        52759
     4.08300        52751        52764        52750        52736        52740
     4.10000        52735        52730        52734        52739        52742
     4.11700        52738        52752        52732        52727        52734
     4.13300        52730        52723        52718        52718        52703
     4.15000        52711        52711        52702        52701        52702
     4.16700        52693        52687        52691        52702        52686
     4.18300        52687        52687        52693        52691        52690
     4.20000        52685        52679        52685        52681        52686
     4.21700        52682        52683        52682        52693        52690
     4.23300        52695        52693        52697        52706        52706
     4.25000        52709        52709        52717        52711        52702
     4.26700        52715        52720        52723        52724        52719
     4.28300        52713        52702        52710        52694        52707
     4.30000        52707        52699        52697        52701        52707
     4.31700        52715        52714        52720        52720        52719
     4.33300        52723        52713        52719        52726        52735
     4.35000        52743        52747        52756        52751        52755
     4.36700        52754        52767        52787        52776        52779
     4.38300        52791        52799        52792        52808        52823
     4.40000        52826        52835        52839        52844        52854
     4.41700        52868        52874        52898        52908        52916
     4.43300        52930        52931        52947        52962        52972
     4.45000        52988        52999        53014        53035        53036
     4.46700        53048        53062        53084        53091        53107
     4.48300        53126        53116        53135        53144        53139
     4.50000        53154        53152        53159        53168        53176
     4.51700        53150        53167        53150        53160        53144
     4.53300        53143        53132        53132        53111        53095
     4.55000        53076        53059        53046        53039        53040
     4.56700        53000        52988        52971        52968        52948
     4.58300        52935        52923        52912        52891        52876
     4.60000        52864        52851        52836        52826        52824
     4.61700        52816        52818        52800        52786        52780
     4.63300        52767        52754        52750        52739        52744
     4.65000        52731        52718        52710        52714        52709
     4.66700        52695        52705        52695        52695        52683
     4.68300        52670        52675        52663        52659        52658
     4.70000        52659        52665        52651        52657        52649
     4.71700        52642        52642        52641        52639        52641
     4.73300        52643        52637        52639        52643        52643
     4.75000        52639        52643        52642        52647        52649
     4.76700        52650        52650        52643        52645        52639
     4.78300        52647        52641        52650        52642        52634
     4.80000        52643        52647        52661        52659        52653
     4.81700        52653        52654        52649        52650        52646
     4.83300        52657        52655        52653        52631        52633
     4.85000        52633        52627        52626        52631        52630
     4.86700        52619        52617        52627        52627        52623
     4.88300        52618        52618        52626        52630        52630
     4.90000        52626        52626        52629        52625        52643
     4.91700        52642        52642        52639        52638        52633
     4.93300        52650        52650        52654        52649        52650
     4.95000        52625        52633        52629        52633        52638
     4.96700        52623        52631        52619        52619        52618
     4.98300        52607        52601        52601        52602        52610
     5.00000        52605        52597        52595        52607        52605
     5.01700        52605        52606        52613        52603        52609
     5.03300        52597        52607        52606        52606        52601
     5.05000        52597        52610        52606        52609        52617
     5.06700        52602        52607        52614        52609        52619
     5.08300        52619        52619        52622        52630        52618
     5.10000        52623        52629        52619        52618        52629
     5.11700        52626        52635        52637        52641        52645
     5.13300        52643        52642        52650        52649        52647
     5.15000        52650        52654        52671        52657        52677
     5.16700        52662        52666        52662        52669        52670
     5.18300        52678        52681        52682        52691        52691
     5.20000        52687        52710        52715        52717        52726
     5.21700        52740        52724        52738        52747        52748
     5.23300        52755        52772        52780        52792        52822
     5.25000        52827        52830        52850        52870        52891
     5.26700        52903        52918        52930        52952        52964
     5.28300        52983        52991        53015        53031        53042
     5.30000        53058        53064        53080        53096        53126
     5.31700        53139        53155        53186        53171        53202
     5.33300        53216        53220        53230        53236        53240
     5.35000        53240        53247        53254        53256        53259
     5.36700        53256        53259        53254        53250        53244
     5.38300        53232        53231        53226        53215        53214
     5.40000        53198        53186        53184        53176        53158
     5.41700        53151        53152        53134        53124        53118
     5.43300        53107        53100        53100        53088        53095
     5.45000        53083        53080        53080        53075        53068
     5.46700        53074        53070        53063        53075        53058
     5.48300        53063        53060        53074        53062        53058
     5.50000        53080        53070        53075        53079        53063
     5.51700        53060        53072        53064        53071        53072
     5.53300        53074        53072        53071        53064        53068
     5.55000        53068        53074        53067        53067        53056
     5.56700        53051        53047        53038        53032        53032
     5.58300        53031        53028        53011        53002        52995
     5.60000        52983        52972        52966        52975        52955
     5.61700        52940        52932        52928        52920        52906
     5.63300        52902        52903        52896        52880        52888
     5.65000        52882        52879        52867        52864        52855
     5.66700        52848        52847        52832        52842        52826
     5.68300        52835        52830        52828        52826        52824
     5.70000        52803        52798        52808        52812        52800
     5.71700        52798        52795        52806        52778        52790
     5.73300        52780        52772        52776        52782        52775
     5.75000        52766        52767        52770        52756        52762
     5.76700        52775        52756        52767        52759        52770
     5.78300        52760        52763        52756        52750        52758
     5.80000        52763        52748        52746        52750        52748
     5.81700        52740        52752        52740        52743        52738
     5.83300        52744        52743        52752        52746        52743
     5.85000        52747        52748        52754        52754        52748
     5.86700        52750        52760        52762        52770        52770
     5.88300        52764        52775        52776        52775        52778
     5.90000        52774        52780        52786        52791        52792
     5.91700        52795        52790        52799        52776        52790
     5.93300        52800        52804        52788        52799        52795
     5.95000        52807        52788        52807        52807        52815
     5.96700        52803        52823        52803        52811        52807
     5.98300        52824        52819        52819        52824        52810
     6.00000        52826        52828        52830        52839        52851
     6.01700        52850        52862        52852        52854        52858
     6.03300        52871        52875        52884        52886        52902
     6.05000        52887        52899        52899        52899        52911
     6.06700        52914        52919        52919        52918        52920
     6.08300        52918        52920        52908        52927        52918
     6.10000        52919        52910        52906        52902        52902
     6.11700        52908        52914        52906        52898        52906
     6.13300        52899        52900        52899        52888        52888
     6.15000        52884        52883        52879        52886        52871
     6.16700        52859        52866        52860        52859        52846
     6.18300        52826        52830        52844        52831        52808
     6.20000        52816        52807        52798        52786        52786
     6.21700        52778        52774        52774        52774        52764
     6.23300        52768        52768        52754        52758        52747
     6.25000        52747        52751        52748        52743        52738
     6.26700        52740        52724        52738        52728        52726
     6.28300        52724        52718        52719        52715        52710
     6.30000        52709        52714        52707        52720        52707
     6.31700        52707        52690        52697        52693        52707
     6.33300        52705        52697        52701        52699        52693
     6.35000        52693        52691        52682        52691        52693
     6.36700        52699        52690        52690        52681        52682
     6.38300        52677        52685        52682        52691        52679
     6.40000        52667        52679        52678        52666        52677
     6.41700        52686        52679        52670        52662        52658
     6.43300        52666        52681        52669        52674        52667
     6.45000        52666        52671        52675        52670        52666
     6.46700        52659        52679        52671        52673        52678
     6.48300        52690        52703        52702        52703        52719
     6.50000        52730        52739        52740        52748        52758
     6.51700        52771        52770        52803        52799        52818
     6.53300        52819        52831        52855        52864        52884
     6.55000        52903        52928        52951        52954        52974
     6.56700        52996        53011        53015        53039        53058
     6.58300        53071        53080        53110        53126        53156
     6.60000        53160        53186        53207        53224        53238
     6.61700        53268        53270        53294        53307        53327
     6.63300        53354        53360        53360        53367        53386
     6.65000        53382        53391        53411        53403        53403
     6.66700        53414        53426        53430        53424        53427
     6.68300        53434        53428        53423        53412        53411
     6.70000        53412        53398        53390        53387        53382
     6.71700        53379        53372        53358        53343        53339
     6.73300        53312        53314        53295        53283        53266
     6.75000        53251        53216        53207        53196        53178
     6.76700        53159        53134        53130        53104        53086
     6.78300        53063        53046        53026        53004        52994
     6.80000        52982        52947        52931        52914        52904
     6.81700        52879        52872        52844        52831        52807
     6.83300        52803        52783        52771        52766        52766
     6.85000        52751        52743        52732        52722        52710
     6.86700        52706        52695        52691        52678        52667
     6.88300        52674        52662        52654        52657        52641
     6.90000        52642        52627        52625        52606        52609
     6.91700        52614        52603        52602        52598        52589
     6.93300        52582        52575        52573        52574        52570
     6.95000        52558        52563        52553        52559        52545
     6.96700        52541        52545        52533        52533        52539
     6.98300        52530        52530        52525        52515        52521
     7.00000        52518        52521        52522        52515        52519
     7.01700        52509        52506        52502        52513        52509
     7.03300        52502        52499        52489        52483        52483
     7.05000        52497        52503        52495        52499        52503
     7.06700        52502        52502        52503        52511        52514
     7.08300        52519        52529        52530        52530        52541
     7.10000        52538        52538        52550        52565        52574
     7.11700        52587        52593        52599        52607        52615
     7.13300        52621        52641        52649        52669        52686
     7.15000        52685        52709        52746        52746        52782
     7.16700        52811        52835        52875        52915        52951
     7.18300        53002        53044        53078        53127        53175
     7.20000        53219        53274        53322        53372        53423
     7.21700        53508        53559        53615        53682        53750
     7.23300        53807        53867        53926        53992        54060
     7.25000        54115        54182        54234        54300        54356
     7.26700        54416        54458        54522        54578        54630
     7.28300        54672        54710        54768        54812        54840
     7.30000        54879        54906        54943        54974        55012
     7.31700        55038        55055        55072        55082        55112
     7.33300        55124        55140        55139        55151        55148
     7.35000        55152        55151        55147        55144        55130
     7.36700        55115        55116        55096        55072        55064
     7.38300        55038        55018        55003        54967        54947
     7.40000        54924        54904        54870        54842        54816
     7.41700        54798        54758        54718        54687        54647
     7.43300        54611        54584        54548        54522        54462
     7.45000        54431        54386        54336        54295        54246
     7.46700        54215        54180        54119        54096        54054
     7.48300        54015        53976        53943        53898        53859
     7.50000        53815        53783        53742        53703        53680
     7.51700        53646        53598        53567        53536        53502
     7.53300        53455        53430        53395        53375        53343
     7.55000        53300        53280        53239        53211        53194
     7.56700        53167        53131        53102        53075        53055
     7.58300        53024        52999        52988        52960        52943
     7.60000        52907        52878        52859        52850        52816
     7.61700        52791        52794        52779        52764        52747
     7.63300        52734        52724        52722        52702        52701
     7.65000        52686        52671        52654        52653        52630
     7.66700        52623        52611        52603        52603        52591
     7.68300        52589        52587        52570        52566        52559
     7.70000        52542        52538        52530        52525        52519
     7.71700        52513        52505        52499        52494        52482
     7.73300        52495        52482        52485        52462        52461
     7.75000        52466        52465        52461        52455        52453
     7.76700        52455        52447        52445        52446        52443
     7.78300        52447        52451        52454        52445        52445
     7.80000        52447        52441        52443        52446        52443
     7.81700        52446        52433        52442        52427        52433
     7.83300        52435        52443        52446        52438        52445
     7.85000        52441        52445        52435        52437        52442
     7.86700        52443        52453        52447        52442        52446
     7.88300        52451        52451        52461        52465        52466
     7.90000        52465        52466        52482        52470        52465
     7.91700        52473        52483        52485        52482        52491
     7.93300        52477        52481        52502        52489        52499
     7.95000        52498        52503        52499        52510        52505
     7.96700        52507        52514        52514        52519        52513
     7.98300        52523        52521        52534        52522        52531
     8.00000        52527        52530        52538        52537        52542
     8.01700        52535        52537        52549        52565        52549
     8.03300        52558        52562        52569        52581        52587
     8.05000        52583        52595        52591        52597        52593
     8.06700        52598        52597        52598        52603        52613
     8.08300        52615        52614        52619        52626        52625
     8.10000        52643        52638        52639        52641        52642
     8.11700        52642        52646        52654        52655        52649
     8.13300        52665        52665        52658        52667        52666
     8.15000        52670        52675        52678        52701        52689
     8.16700        52698        52706        52693        52697        52705
     8.18300        52702        52699        52714        52717        52711
     8.20000        52717        52715        52711        52720        52730
     8.21700        52730        52727        52726        52724        52730
     8.23300        52731        52740        52748        52756        52759
     8.25000        52758        52758        52771        52775        52768
     8.26700        52783        52787        52792        52780        52796
     8.28300        52800        52796        52807        52807        52807
     8.30000        52807        52807        52808        52824        52808
     8.31700        52826        52824        52824        52816        52831
     8.33300        52823        52830        52832        52834        52850
     8.35000        52847        52854        52862        52867        52870
     8.36700        52879        52872        52883        52899        52896
     8.38300        52899        52916        52920        52924        52928
     8.40000        52943        52950        52954        52963        52956
     8.41700        52964        52978        52986        52991        53000
     8.43300        52996        53012        53008        53018        53019
     8.45000        53027        53047        53042        53047        53050
     8.46700        53054        53067        53062        53068        53075
     8.48300        53095        53083        53102        53102        53107
     8.50000        53114        53131        53134        53138        53151
     8.51700        53156        53160        53150        53167        53167
     8.53300        53167        53184        53184        53195        53195
     8.55000        53206        53214        53218        53228        53239
     8.56700        53251        53250        53272        53280        53275
     8.58300        53286        53299        53322        53310        53320
     8.60000        53318        53324        53322        53335        53331
     8.61700        53346        53344        53352        53351        53360
     8.63300        53362        53362        53374        53376        53387
     8.65000        53394        53407        53408        53406        53416
     8.66700        53419        53435        53426        53442        53440
     8.68300        53443        53447        53458        53459        53478
     8.70000        53474        53484        53479        53495        53498
     8.71700        53498        53495        53512        53506        53515
     8.73300        53519        53519        53523        53532        53538
     8.75000        53547        53544        53550        53556        53551
     8.76700        53555        53558        53567        53578        53588
     8.78300        53592        53604        53595        53607        53612
     8.80000        53623        53630        53632        53648        53643
     8.81700        53635        53654        53647        53648        53652
     8.83300        53670        53666        53672        53680        53671
     8.85000        53678        53682        53688        53686        53687
     8.86700        53686        53699        53698        53696        53708
     8.88300        53704        53719        53716        53730        53731
     8.90000        53728        53730        53734        53735        53736
     8.91700        53732        53736        53736        53739        53746
     8.93300        53738        53744        53739        53746        53750
     8.95000        53756        53746        53767        53750        53747
     8.96700        53751        53758        53747        53751        53760
     8.98300        53767        53774        53776        53771        53783
     9.00000        53774        53778        53794        53786        53784
     9.01700        53786        53786        53792        53804        53806
     9.03300        53804        53807        53811        53807        53807
     9.05000        53810        53806        53807        53790        53814
     9.06700        53799        53808        53814        53810        53814
     9.08300        53806        53806        53808        53808        53804
     9.10000        53803        53814        53807        53804        53810
     9.11700        53803        53811        53800        53796        53806
     9.13300        53802        53798        53803        53804        53788
     9.15000        53806        53788        53804        53804        53792
     9.16700        53802        53794        53804        53790        53788
     9.18300        53784        53788        53784        53787        53784
     9.20000        53786        53787        53775        53783        53771
     9.21700        53778        53764        53767        53766        53772
     9.23300        53760        53751        53758        53760        53760
     9.25000        53752        53748        53748        53746        53744
     9.26700        53742        53750        53751        53746        53743
     9.28300        53735        53730        53734        53723        53722
     9.30000        53716        53723        53720        53716        53702
     9.31700        53704        53699        53703        53692        53704
     9.33300        53686        53678        53691        53682        53680
     9.35000        53664        53666        53650        53654        53660
     9.36700        53651        53658        53643        53638        53643
     9.38300        53632        53632        53631        53636        53619
     9.40000        53628        53615        53616        53612        53616
     9.41700        53610        53600        53600        53600        53610
     9.43300        53595        53587        53590        53588        53584
     9.45000        53586        53575        53578        53570        53566
     9.46700        53558        53550        53552        53542        53532
     9.48300        53526        53530        53518        53519        53520
     9.50000        53516        53523        53495        53483        53491
     9.51700        53486        53483        53476        53476        53464
     9.53300        53476        53446        53454        53454        53448
     9.55000        53439        53434        53424        53416        53424
     9.56700        53416        53414        53396        53395        53379
     9.58300        53387        53375        53366        53370        53370
     9.60000        53364        53366        53340        53346        53340
     9.61700        53339        53335        53326        53320        53323
     9.63300        53310        53300        53299        53290        53286
     9.65000        53291        53274        53271        53264        53264
     9.66700        53258        53251        53246        53247        53236
     9.68300        53235        53222        53203        53216        53223
     9.70000        53212        53199        53195        53214        53191
     9.71700        53195        53188        53202        53184        53180
     9.73300        53176        53168        53162        53168        53172
     9.75000        53143        53152        53148        53138        53132
     9.76700        53148        53135        53143        53124        53131
     9.78300        53131        53127        53108        53119        53106
     9.80000        53103        53102        53110        53099        53094
     9.81700        53091        53088        53090        53091        53086
     9.83300        53076        53064        53066        53082        53056
     9.85000        53068        53055        53062        53050        53051
     9.86700        53055        53044        53047        53058        53043
     9.88300        53042        53038        53030        53040        53032
     9.90000        53027        53020        53032        53026        53022
     9.91700        53019        53007        53018        53003        53007
     9.93300        53008        53004        53011        53002        52996
     9.95000        52998        52995        52998        52995        52996
     9.96700        53000        52992        52991        52998        52990
     9.98300        52992        53006        52990        52994        52975
    10.00000        52987        52978        52978        52966        52975
    10.01700        52959        52960        52968        52962        52963
    10.03300        52966        52970        52972        52975        52984
    10.05000        52980        52982        52970        52976        52980
    10.06700        52984        52986        52983        52988        52988
    10.08300        52983        52996        52992        52983        52983
    10.10000        52988        52980        52992        52986        52994
    10.11700        52999        52982        52996        52988        52994
    10.13300        52980        52979        52987        52982        52990
    10.15000        52975        52982        52976        52980        52970
    10.16700        52979        52976        52980        52978        52979
    10.18300        52978        52967        52964        52980        52979
    10.20000        52978        52988        52978        52983        52978
    10.21700        52995        53002        52987        52994        52995
    10.23300        52998        52992        52991        52994        52986
    10.25000        52982        52991        53004        53004        52998
    10.26700        52999        53007        53002        52996        53006
    10.28300        53012        52999        53006        53003        53002
    10.30000        53006        53010        53006        53014        53000
    10.31700        53006        52999        52992        53010        52999
    10.33300        52994        53004        53012        53007        52998
    10.35000        53012        53008        53010        53014        53018
    10.36700        53027        53020        53024        53024        53016
    10.38300        53026        53024        53031        53016        53027
    10.40000        53016        53024        53028        53026        53032
    10.41700        53031        53032        53026        53024        53014
    10.43300        53024        53022        53030        53020        53023
    10.45000        53007        53006        53004        53004        52999
    10.46700        53002        52992        52995        52996        53000
    10.48300        53000        52996        52992        52996        53007
    10.50000        53006        53002        53000        52998        52994
    10.51700        52996        52990        52994        52991        52986
    10.53300        52983        52978        52991        52983        52978
    10.55000        52986        52982        52988        52987        52980
    10.56700        52986        52992        52986        52975        52990
    10.58300        52990        52984        52970        52979        52963
    10.60000        52975        52958        52960        52951        52938
    10.61700        52948        52930        52934        52924        52924
    10.63300        52927        52922        52922        52918        52923
    10.65000        52914        52906        52907        52918        52922
    10.66700        52910        52911        52916        52906        52894
    10.68300        52896        52898        52899        52896        52887
    10.70000        52884        52886        52886        52890        52880
    10.71700        52883        52894        52888        52890        52882
    10.73300        52891        52890        52883        52875        52868
    10.75000        52872        52871        52872        52867        52871
    10.76700        52879        52880        52872        52854        52866
    10.78300        52870        52878        52870        52874        52878
    10.80000        52874        52880        52891        52884        52891
    10.81700        52883        52888        52891        52891        52888
    10.83300        52886        52882        52878        52871        52878
    10.85000        52878        52876        52874        52878        52879
    10.86700        52879        52872        52890        52879        52883
    10.88300        52886        52879        52876        52880        52879
    10.90000        52886        52887        52879        52887        52883
    10.91700        52876        52882        52872        52864        52868
    10.93300        52860        52856        52856        52848        52846
    10.95000        52854        52851        52842        52850        52842
    10.96700        52842        52830        52848        52832        52842
    10.98300        52840        52840        52836        52843        52826
    11.00000        52836        52834        52828        52843        52827
    11.01700        52828        52823        52812        52819        52815
    11.03300        52827        52807        52807        52807        52807
    11.05000        52807        52807        52806        52796        52798
    11.06700        52795        52783        52786        52791        52775
    11.08300        52768        52762        52770        52758        52740
    11.10000        52750        52739        52735        52746        52734
    11.11700        52730        52726        52720        52722        52709
    11.13300        52713        52711        52710        52703        52703
    11.15000        52706        52699        52711        52711        52705
    11.16700        52702        52698        52719        52703        52695
    11.18300        52695        52702        52702        52687        52713
    11.20000        52698        52701        52690        52687        52694
    11.21700        52697        52693        52693        52697        52691
    11.23300        52698        52687        52691        52695        52697
    11.25000        52685        52685        52690        52677        52681
    11.26700        52671        52674        52663        52666        52662
    11.28300        52663        52650        52654        52649        52647
    11.30000        52642        52646        52643        52641        52627
    11.31700        52627        52635        52626        52627        52625
    11.33300        52611        52606        52595        52595        52591
    11.35000        52590        52575        52583        52579        52566
    11.36700        52571        52574        52567        52565        52562
    11.38300        52567        52558        52581        52562        52555
    11.40000        52561        52551        52546        52551        52551
    11.41700        52558        52561        52559        52557        52557
    11.43300        52553        52559        52558        52545        52539
    11.45000        52543        52522        52535        52537        52531
    11.46700        52535        52526        52533        52535        52535
    11.48300        52530        52535        52538        52531        52537
    11.50000        52534        52531        52531        52525        52527
    11.51700        52531        52529        52526        52519        52517
    11.53300        52510        52509        52509        52507        52515
    11.55000        52513        52503        52511        52505        52505
    11.56700        52506        52514        52521        52518        52522
    11.58300        52513        52511        52511        52515        52518
    11.60000        52522        52501        52522        52526        52514
    11.61700        52514        52506        52515        52515        52509
    11.63300        52514        52503        52501        52494        52495
    11.65000        52495        52494        52494        52489        52487
    11.66700        52482        52485        52483        52479        52497
    11.68300        52477        52478        52479        52471        52477
    11.70000        52474        52467        52471        52471        52467
    11.71700        52463        52463        52463        52461        52449
    11.73300        52455        52449        52450        52442        52435
    11.75000        52425        52426        52429        52431        52413
    11.76700        52421        52421        52418        52419        52419
    11.78300        52414        52418        52419        52414        52411
    11.80000        52411        52401        52405        52395        52389
    11.81700        52395        52385        52374        52371        52378
    11.83300        52369        52375        52373        52369        52366
    11.85000        52366        52358        52370        52363        52363
    11.86700        52371        52366        52365        52366        52361
    11.88300        52350        52347        52354        52359        52354
    11.90000        52353        52347        52349        52335        52338
    11.91700        52335        52330        52338        52327        52318
    11.93300        52326        52325        52318        52327        52311
    11.95000        52325        52323        52315        52314        52315
    11.96700        52307        52301        52290        52303        52291
    11.98300        52283        52285        52282        52286        52278
    12.00000        52277        52279        52273        52269        52261
    12.01700        52269        52266        52258        52267        52267
    12.03300        52265        52262        52262        52254        52262
    12.05000        52258        52259        52263        52261        52254
    12.06700        52251        52249        52255        52250        52255
    12.08300        52249        52243        52249        52235        52233
    12.10000        52235        52226        52233        52227        52234
    12.11700        52226        52231        52222        52222        52230
    12.13300        52230        52229        52233        52223        52215
    12.15000        52233        52222        52211        52231        52226
    12.16700        52219        52222        52219        52222        52230
    12.18300        52233        52235        52234        52239        52231
    12.20000        52247        52235        52238        52246        52242
    12.21700        52247        52246        52243        52237        52237
    12.23300        52243        52235        52241        52247        52249
    12.25000        52242        52235        52247        52255        52253
    12.26700        52265        52254        52259        52255        52261
    12.28300        52270        52265        52258        52253        52265
    12.30000        52255        52261        52266        52265        52265
    12.31700        52270        52239        52258        52253        52246
    12.33300        52253        52239        52234        52237        52241
    12.35000        52241        52239        52238        52230        52229
    12.36700        52234        52243        52237        52247        52238
    12.38300        52250        52247        52239        52247        52255
    12.40000        52245        52250        52250        52251        52245
    12.41700        52250        52246        52243        52234        52238
    12.43300        52239        52247        52239        52250        52235
    12.45000        52235        52243        52254        52242        52246
    12.46700        52247        52251        52246        52250        52258
    12.48300        52257        52250        52253        52257        52250
    12.50000        52247        52250        52249        52250        52251
    12.51700        52261        52261        52254        52259        52261
    12.53300        52259        52263        52277        52265        52277
    12.55000        52273        52282        52279        52290        52281
    12.56700        52290        52291        52290        52285        52283
    12.58300        52278        52285        52291        52278        52274
    12.60000        52270        52274        52275        52275        52279
    12.61700        52291        52294        52282        52275        52275
    12.63300        52275        52263        52279        52285        52283
    12.65000        52285        52277        52274        52287        52285
    12.66700        52281        52283        52281        52290        52273
    12.68300        52266        52265        52263        52263        52266
    12.70000        52269        52273        52259        52249        52259
    12.71700        52258        52263        52269        52262        52261
    12.73300        52254        52253        52250        52254        52246
    12.75000        52247        52235        52250        52255        52249
    12.76700        52245        52255        52257        52254        52255
    12.78300        52259        52265        52258        52267        52263
    12.80000        52274        52281        52279        52274        52261
    12.81700        52265        52266        52266        52265        52274
    12.83300        52265        52266        52258        52255        52262
    12.85000        52270        52255        52259        52275        52275
    12.86700        52271        52261        52281        52263        52266
    12.88300        52275        52273        52279        52270        52274
    12.90000        52281        52271        52281        52271        52286
    12.91700        52279        52287        52279        52285        52294
    12.93300        52294        52293        52298        52303        52298
    12.95000        52293        52285        52298        52302        52302
    12.96700        52303        52302        52298        52302        52297
    12.98300        52302        52315        52305        52309        52305
    13.00000        52318        52307        52307        52326        52303
    13.01700        52313        52318        52327        52318        52310
    13.03300        52313        52313        52315        52321        52327
    13.05000        52326        52314        52321        52322        52310
    13.06700        52317        52315        52317        52325        52326
    13.08300        52315        52318        52319        52323        52315
    13.10000        52331        52331        52326        52326        52333
    13.11700        52331        52330        52345        52339        52333
    13.13300        52339        52337        52326        52323        52322
    13.15000        52342        52329        52322        52318        52319
    13.16700        52319        52321        52334        52329        52329
    13.18300        52326        52322        52329        52317        52311
    13.20000        52319        52303        52317        52311        52307
    13.21700        52310        52305        52301        52306        52303
    13.23300        52299        52311        52305        52302        52303
    13.25000        52305        52298        52294        52285        52294
    13.26700        52286        52282        52279        52275        52277
    13.28300        52273        52265        52278        52266        52265
    13.30000        52259        52255        52267        52271        52258
    13.31700        52263        52270        52261        52267        52266
    13.33300        52263        52263        52251        52257        52262
    13.35000        52274        52271        52263        52273        52277
    13.36700        52278        52270        52277        52283        52281
    13.38300        52259        52270        52270        52265        52262
    13.40000        52265        52267        52255        52250        52257
    13.41700        52262        52261        52265        52267        52257
    13.43300        52266        52262        52265        52266        52269
    13.45000        52278        52273        52275        52266        52262
    13.46700        52270        52269        52269        52285        52277
    13.48300        52274        52271        52279        52273        52273
    13.50000        52270        52278        52278        52281        52273
    13.51700        52275        52281        52277        52282        52273
    13.53300        52273        52273        52289        52278        52282
    13.55000        52283        52285        52289        52290        52285
    13.56700        52301        52290        52286        52297        52282
    13.58300        52286        52301        52281        52278        52274
    13.60000        52279        52290        52281        52285        52285
    13.61700        52290        52285        52289        52295        52289
    13.63300        52297        52283        52295        52281        52285
    13.65000        52289        52285        52273        52286        52286
    13.66700        52293        52283        52290        52283        52283
    13.68300        52282        52285        52279        52293        52285
    13.70000        52279        52273        52270        52273        52269
    13.71700        52265        52262        52266        52261        52250
    13.73300        52261        52242        52246        52265        52261
    13.75000        52262        52257        52258        52253        52243
    13.76700        52243        52247        52245        52239        52237
    13.78300        52230        52237        52231        52231        52227
    13.80000        52243        52231        52230        52226        52222
    13.81700        52235        52233        52231        52229        52235
    13.83300        52235        52229        52229        52233        52249
    13.85000        52233        52246        52242        52234        52238
    13.86700        52231        52237        52230        52238        52231
    13.88300        52234        52239        52233        52235        52241
    13.90000        52243        52242        52241        52239        52245
    13.91700        52257        52247        52255        52251        52259
    13.93300        52262        52265        52265        52270        52261
    13.95000        52266        52265        52270        52267        52279
    13.96700        52273        52275        52277        52279        52273
    13.98300        52279        52285        52279        52283        52286
    14.00000        52267        52274        52275        52278        52279
    14.01700        52281        52282        52283        52285        52270
    14.03300        52281        52287        52286        52286        52282
    14.05000        52279        52279        52269        52270        52269
    14.06700        52267        52262        52267        52263        52257
    14.08300        52261        52259        52257        52254        52255
    14.10000        52251        52239        52241        52233        52225
    14.11700        52235        52234        52230        52229        52235
    14.13300        52231        52225        52223        52230        52215
    14.15000        52225        52214        52209        52199        52206
    14.16700        52206        52199        52205        52189        52190
    14.18300        52190        52179        52190        52187        52182
    14.20000        52187        52187        52186        52175        52179
    14.21700        52170        52167        52165        52162        52167
    14.23300        52169        52171        52162        52159        52165
    14.25000        52159        52157        52162        52162        52169
    14.26700        52169        52158        52167        52161        52155
    14.28300        52169        52159        52151        52165        52157
    14.30000        52163        52157        52155        52155        52165
    14.31700        52173        52174        52173        52175        52189
    14.33300        52189        52187        52193        52189        52194
    14.35000        52189        52201        52202        52205        52213
    14.36700        52225        52215        52217        52215        52215
    14.38300        52211        52206        52218        52229        52221
    14.40000        52225        52219        52225        52229        52230
    14.41700        52243        52251        52234        52243        52246
    14.43300        52245        52247        52258        52255        52253
    14.45000        52253        52253        52238        52241        52238
    14.46700        52242        52241        52235        52229        52225
    14.48300        52225        52219        52218        52218        52219
    14.50000        52227        52209        52207        52201        52207
    14.51700        52198        52209        52211        52211        52210
    14.53300        52215        52211        52217        52209        52221
    14.55000        52218        52219        52203        52210        52209
    14.56700        52225        52219        52222        52226        52230
    14.58300        52234        52233        52225        52230        52225
    14.60000        52218        52241        52246        52245        52245
    14.61700        52242        52238        52254        52242        52245
    14.63300        52255        52243        52247        52246        52243
    14.65000        52243        52241        52237        52239        52238
    14.66700        52235        52242        52233        52237        52229
    14.68300        52242        52243        52234        52227        52233
    14.70000        52238        52221        52226        52227        52223
    14.71700        52226        52226        52226        52226        52227
    14.73300        52230        52238        52238        52233        52235
    14.75000        52226        52230        52226        52233        52230
    14.76700        52231        52234        52237        52237        52254
    14.78300        52241        52242        52237        52243        52247
    14.80000        52243        52242        52246        52246        52230
    14.81700        52219        52239        52234        52231        52231
    14.83300        52223        52226        52227        52219        52225
    14.85000        52234        52227        52230        52235        52237
    14.86700        52238        52233        52238        52231        52237
    14.88300        52245        52239        52238        52238        52231
    14.90000        52233        52230        52238        52235        52238
    14.91700        52249        52241        52235        52239        52251
    14.93300        52258        52259        52254        52238        52251
    14.95000        52249        52253        52249        52249        52243
    14.96700        52247        52238        52247        52243        52251
    14.98300        52249        52243        52250        52243        52243
    15.00000        52250        52242        52249        52255        52251
    15.01700        52246        52239        52251        52239        52250
    15.03300        52250        52254        52241        52245        52245
    15.05000        52239        52251        52243        52235        52246
    15.06700        52249        52253        52243        52247        52263
    15.08300        52265        52262        52263        52261        52275
    15.10000        52267        52261        52273        52266        52273
    15.11700        52279        52275        52289        52285        52293
    15.13300        52283        52287        52291        52294        52291
    15.15000        52294        52293        52295        52289        52285
    15.16700        52282        52273        52273        52269        52265
    15.18300        52265        52255        52262        52261        52263
    15.20000        52279        52277        52270        52267        52274
    15.21700        52279        52279        52279        52283        52281
    15.23300        52281        52270        52269        52274        52274
    15.25000        52278        52267        52273        52262        52277
    15.26700        52269        52262        52270        52267        52267
    15.28300        52261        52254        52257        52253        52253
    15.30000        52251        52253        52249        52259        52243
    15.31700        52242        52250        52246        52257        52253
    15.33300        52267        52266        52259        52266        52266
    15.35000        52263        52273        52277        52279        52277
    15.36700        52289        52289        52294        52294        52291
    15.38300        52301        52309        52299        52299        52295
    15.40000        52305        52306        52309        52311        52310
    15.41700        52309        52317        52315        52318        52325
    15.43300        52331        52338        52326        52345        52343
    15.45000        52338        52353        52343        52361        52363
    15.46700        52362        52361        52358        52365        52357
    15.48300        52367        52365        52359        52367        52365
    15.50000        52365        52377        52383        52381        52383
    15.51700        52393        52397        52391        52399        52383
    15.53300        52399        52390        52387        52398        52402
    15.55000        52390        52405        52409        52394        52397
    15.56700        52406        52397        52405        52393        52406
    15.58300        52398        52397        52383        52379        52381
    15.60000        52386        52378        52389        52377        52366
    15.61700        52379        52375        52375        52378        52378
    15.63300        52371        52369        52363        52373        52370
    15.65000        52362        52371        52374        52370        52362
    15.66700        52363        52369        52367        52363        52353
    15.68300        52366        52358        52359        52359        52369
    15.70000        52374        52369        52381        52374        52382
    15.71700        52389        52379        52385        52387        52385
    15.73300        52397        52391        52399        52385        52391
    15.75000        52386        52394        52399        52399        52399
    15.76700        52395        52393        52395        52394        52387
    15.78300        52389        52397        52398        52395        52389
    15.80000        52381        52389        52398        52399        52394
    15.81700        52399        52409        52409        52402        52407
    15.83300        52411        52415        52423        52426        52431
    15.85000        52438        52441        52434        52431        52438
    15.86700        52449        52446        52451        52443        52447
    15.88300        52445        52446        52458        52473        52478
    15.90000        52469        52474        52466        52469        52482
    15.91700        52483        52483        52485        52482        52482
    15.93300        52494        52473        52491        52475        52482
    15.95000        52483        52482        52485        52471        52477
    15.96700        52499        52497        52491        52498        52498
    15.98300        52493        52510        52510        52502        52517
    16.00000        52522        52521        52521        52531        52529
    16.01700        52523        52530        52537        52539        52553
    16.03300        52550        52549        52547        52561        52551
    16.05000        52563        52549        52567        52573        52578
    16.06700        52579        52579        52578        52585        52594
    16.08300        52599        52607        52602        52602        52601
    16.10000        52609        52591        52597        52609        52615
    16.11700        52614        52610        52610        52602        52610
    16.13300        52606        52610        52617        52602        52607
    16.15000        52610        52610        52614        52622        52622
    16.16700        52627        52629        52641        52637        52638
    16.18300        52646        52639        52646        52663        52653
    16.20000        52654        52666        52670        52667        52677
    16.21700        52671        52681        52689        52697        52694
    16.23300        52703        52695        52705        52719        52718
    16.25000        52717        52718        52722        52714        52719
    16.26700        52724        52723        52736        52728        52739
    16.28300        52739        52742        52739        52756        52754
    16.30000        52759        52766        52763        52763        52768
    16.31700        52768        52764        52786        52780        52786
    16.33300        52792        52782        52796        52786        52791
    16.35000        52788        52795        52803        52807        52795
    16.36700        52812        52814        52824        52816        52823
    16.38300        52839        52824        52818        52824        52812
    16.40000        52820        52831        52835        52842        52839
    16.41700        52830        52836        52826        52844        52835
    16.43300        52844        52852        52847        52844        52842
    16.45000        52839        52840        52846        52854        52854
    16.46700        52871        52854        52863        52852        52860
    16.48300        52858        52870        52866        52871        52863
    16.50000        52867        52858        52866        52866        52864
    16.51700        52880        52878        52875        52891        52890
    16.53300        52904        52908        52924        52912        52915
    16.55000        52920        52922        52923        52912        52931
    16.56700        52930        52936        52936        52942        52940
    16.58300        52934        52932        52935        52939        52948
    16.60000        52956        52950        52955        52952        52962
    16.61700        52964        52962        52960        52960        52960
    16.63300        52967        52966        52968        52970        52980
    16.65000        52988        52979        52979        52978        52982
    16.66700        52982        52992        52998        53002        53012
    16.68300        53020        53014        53014        53010        53024
    16.70000        53011        53027        53022        53024        53030
    16.71700        53024        53032        53043        53046        53047
    16.73300        53047        53058        53038        53048        53047
    16.75000        53044        53040        53035        53047        53038
    16.76700        53031        53039        53055        53038        53043
    16.78300        53042        53032        53027        53044        53038
    16.80000        53038        53044        53055        53051        53059
    16.81700        53051        53058        53055        53042        53042
    16.83300        53044        53052        53046        53047        53031
    16.85000        53030        53030        53046        53034        53034
    16.86700        53010        53023        53018        53020        53019
    16.88300        53015        53020        53014        53019        53016
    16.90000        53010        53004        53002        53008        53010
    16.91700        53015        53004        53011        53003        53000
    16.93300        53004        53000        53003        53003        53003
    16.95000        53016        53010        53012        53011        53011
    16.96700        53004        53014        53018        53012        53008
    16.98300        53010        53000        53014        53015        53010
    17.00000        53012        53015        53003        53019        53018
    17.01700        53011        53012        53018        53019        53031
    17.03300        53032        53022        53018        53019        53014
    17.05000        53011        53026        53022        53022        53030
    17.06700        53022        53026        53019        53023        53030
    17.08300        53022        53039        53026        53014        53020
    17.10000        53014        53020        53035        53050        53032
    17.11700        53038        53039        53040        53054        53051
    17.13300        53059        53058        53060        53048        53067
    17.15000        53055        53067        53066        53067        53048
    17.16700        53056        53054        53052        53056        53048
    17.18300        53050        53047        53043        53051        53046
    17.20000        53039        53043        53051        53052        53042
    17.21700        53054        53050        53050        53043        53044
    17.23300        53040        53055        53054        53039        53044
    17.25000        53042        53046        53048        53047        53050
    17.26700        53048        53054        53058        53050        53050
    17.28300        53055        53043        53043        53054        53043
    17.30000        53050        53047        53040        53048        53055
    17.31700        53042        53047        53060        53054        53063
    17.33300        53059        53034        53044        53044        53052
    17.35000        53039        53040        53039        53034        53034
    17.36700        53030        53031        53024        53026        53023
    17.38300        53022        53010        53019        53004        53016
    17.40000        53011        53019        53024        53016        53007
    17.41700        53014        53008        53014        53006        53012
    17.43300        52996        52986        53000        52996        53000
    17.45000        52992        53000        53000        53003        53002
    17.46700        53006        53000        52994        52992        52986
    17.48300        52987        52984        52976        52975        52966
    17.50000        52967        52970        52979        52976        52974
    17.51700        52975        52975        52971        52963        52967
    17.53300        52956        52966        52960        52958        52958
    17.55000        52954        52956        52942        52942        52950
    17.56700        52940        52943        52939        52935        52935
    17.58300        52930        52939        52934        52943        52932
    17.60000        52938        52935        52932        52931        52930
    17.61700        52938        52928        52931        52940        52931
    17.63300        52942        52948        52947        52955        52968
    17.65000        52960        52959        52967        52964        52959
    17.66700        52967        52968        52972        52966        52964
    17.68300        52968        52962        52964        52974        52976
    17.70000        52982        52980        52974        52980        52978
    17.71700        52972        52974        52975        52990        52992
    17.73300        52988        52980        52987        52983        52991
    17.75000        52987        52998        52990        52998        52984
    17.76700        52983        52980        52992        52983        52974
    17.78300        52978        52979        52970        52970        52964
    17.80000        52963        52955        52959        52958        52943
    17.81700        52931        52943        52934        52923        52922
    17.83300        52915        52908        52891        52900        52894
    17.85000        52883        52880        52879        52883        52867
    17.86700        52852        52859        52843        52842        52851
    17.88300        52828        52830        52826        52807        52807
    17.90000        52807        52807        52804        52790        52800
    17.91700        52798        52802        52787        52788        52792
    17.93300        52787        52799        52787        52795        52799
    17.95000        52807        52790        52792        52794        52778
    17.96700        52786        52794        52778        52792        52764
    17.98300        52767        52756        52760        52758        52752
    18.00000        52750        52755        52747        52752        52744
    18.01700        52738        52740        52734        52736        52728
    18.03300        52731        52735        52736        52731        52723
    18.05000        52739        52738        52738        52727        52742
    18.06700        52738        52740        52743        52742        52728
    18.08300        52744        52738        52728        52724        52735
    18.10000        52740        52732        52717        52723        52719
    18.11700        52714        52707        52724        52719        52719
    18.13300        52713        52711        52709        52706        52715
    18.15000        52713        52707        52715        52703        52717
    18.16700        52711        52713        52713        52720        52719
    18.18300        52728        52703        52724        52713        52706
    18.20000        52698        52709        52713        52701        52715
    18.21700        52703        52693        52693        52697        52698
    18.23300        52699        52691        52686        52698        52685
    18.25000        52693        52685        52686        52682        52685
    18.26700        52679        52677        52677        52665        52670
    18.28300        52658        52657        52661        52654        52650
    18.30000        52646        52635        52643        52639        52634
    18.31700        52642        52631        52639        52629        52633
    18.33300        52619        52633        52633        52635        52638
    18.35000        52625        52625        52629        52627        52625
    18.36700        52623        52627        52629        52627        52614
    18.38300        52617        52615        52601        52607        52602
    18.40000        52602        52607        52593        52598        52587
    18.41700        52587        52578        52585        52594        52594
    18.43300        52578        52577        52571        52574        52566
    18.45000        52559        52555        52562        52550        52530
    18.46700        52534        52526        52527        52519        52527
    18.48300        52525        52518        52522        52521        52511
    18.50000        52507        52503        52505        52506        52497
    18.51700        52499        52485        52501        52498        52490
    18.53300        52501        52505        52491        52498        52495
    18.55000        52489        52493        52493        52501        52486
    18.56700        52483        52482        52465        52478        52455
    18.58300        52467        52458        52451        52454        52435
    18.60000        52430        52433        52427        52422        52425
    18.61700        52422        52414        52406        52414        52411
    18.63300        52405        52406        52403        52407        52402
    18.65000        52403        52402        52387        52381        52383
    18.66700        52389        52383        52382        52367        52374
    18.68300        52367        52362        52369        52362        52357
    18.70000        52361        52349        52358        52353        52353
    18.71700        52349        52355        52366        52361        52357
    18.73300        52353        52347        52353        52355        52353
    18.75000        52358        52351        52358        52350        52366
    18.76700        52345        52358        52354        52351        52342
    18.78300        52347        52339        52343        52343        52345
    18.80000        52330        52343        52350        52353        52349
    18.81700        52338        52347        52339        52346        52353
    18.83300        52350        52351        52342        52347        52361
    18.85000        52361        52357        52363        52353        52359
    18.86700        52345        52347        52338        52353        52346
    18.88300        52354        52350        52353        52337        52347
    18.90000        52349        52350        52342        52363        52362
    18.91700        52357        52350        52357        52366        52351
    18.93300        52355        52362        52347        52355        52358
    18.95000        52355        52353        52357        52361        52367
    18.96700        52378        52367        52378        52379        52379
    18.98300        52390        52385        52394        52399        52398
    19.00000        52401        52399        52407        52391        52402
    19.01700        52401        52397        52398        52397        52387
    19.03300        52386        52389        52385        52382        52385
    19.05000        52378        52386        52377        52382        52377
    19.06700        52381        52383        52383        52381        52379
    19.08300        52379        52381        52374        52378        52373
    19.10000        52385        52371        52369        52358        52353
    19.11700        52357        52362        52358        52369        52358
    19.13300        52354        52347        52347        52343        52334
    19.15000        52339        52337        52341        52347        52342
    19.16700        52339        52341        52345        52335        52333
    19.18300        52333        52331        52338        52335        52333
    19.20000        52333        52338        52335        52335        52334
    19.21700        52329        52325        52321        52315        52325
    19.23300        52329        52325        52326        52326        52323
    19.25000        52333        52339        52333        52335        52333
    19.26700        52329        52333        52331        52331        52322
    19.28300        52333        52342        52342        52331        52337
    19.30000        52338        52342        52333        52339        52343
    19.31700        52345        52342        52339        52337        52349
    19.33300        52351        52353        52346        52350        52353
    19.35000        52355        52357        52353        52367        52367
    19.36700        52361        52369        52367        52374        52367
    19.38300        52374        52374        52370        52381        52383
    19.40000        52386        52377        52382        52378        52379
    19.41700        52381        52395        52393        52402        52399
    19.43300        52402        52393        52405        52401        52411
    19.45000        52422        52419        52417        52426        52423
    19.46700        52435        52434        52439        52433        52455
    19.48300        52450        52454        52453        52457        52455
    19.50000        52463        52461        52461        52466        52473
    19.51700        52469        52477        52466        52487        52479
    19.53300        52498        52495        52497        52502        52499
    19.55000        52499        52502        52519        52515        52519
    19.56700        52525        52517        52517        52530        52538
    19.58300        52543        52547        52545        52551        52553
    19.60000        52551        52551        52546        52551        52551
    19.61700        52542        52549        52551        52543        52554
    19.63300        52554        52555        52561        52558        52561
    19.65000        52579        52566        52578        52574        52593
    19.66700        52593        52587        52591        52593        52603
    19.68300        52605        52607        52607        52613        52603
    19.70000        52613        52609        52617        52607        52606
    19.71700        52609        52599        52613        52613        52618
    19.73300        52629        52633        52633        52637        52642
    19.75000        52658        52659        52661        52654        52661
    19.76700        52653        52662        52669        52674        52674
    19.78300        52679        52682        52677        52697        52695
    19.80000        52705        52691        52703        52699        52690
    19.81700        52710        52707        52714        52710        52715
    19.83300        52717        52726        52726        52731        52727
    19.85000        52738        52739        52750        52744        52739
    19.86700        52758        52752        52742        52760        52764
    19.88300        52771        52762        52774        52772        52768
    19.90000        52774        52776        52796        52786        52796
    19.91700        52782        52792        52788        52807        52806
    19.93300        52807        52798        52818        52807        52800
    19.95000        52815        52823        52811        52826        52820
    19.96700        52828        52828        52834        52828        52832
    19.98300        52838        52859        52854        52850        52862
    19.99700        52862        52862        52870        52875
##END= 
