##TITLE= Headspace from lime skin
##JCAMP-DX= 4.24
##DATA TYPE= GAS CHROMATOGRAPH
##$ASDF TYPE= FIX
##ORIGIN= HP 5890 GC TABULATED file
##OWNER= Dept of Chem, UWI, Mona, JAMAICA
##DATE= 11-26-1995
##TIME= 08:41:51
##NPOINTS=   6001
##XUNITS= ARBITRARY
##YUNITS= ARBITRARY
##FIRSTX=      0.00000
##LASTX=     20.00000
##XFACTOR= 1.0
##YFACTOR= 1.0
##FIRSTY=      49559
##MAXY=     886837
##MINY=      48917
##XYDATA= (X++(Y..Y))
     0.00000        49559        49565        49565        49566        49558
     0.01700        49562        49571        49573        49563        49574
     0.03300        49563        49565        49563        49567        49565
     0.05000        49571        49570        49566        49578        49569
     0.06700        49578        49570        49570        49571        49573
     0.08300        49570        49570        49567        49567        49565
     0.10000        49554        49566        49555        49555        49567
     0.11700        49554        49565        49562        49565        49562
     0.13300        49563        49558        49563        49558        49574
     0.15000        49566        49563        49557        49558        49558
     0.16700        49555        49565        49562        49549        49562
     0.18300        49566        49565        49558        49555        49554
     0.20000        49551        49563        49558        49555        49554
     0.21700        49558        49547        49550        49546        49550
     0.23300        49541        49555        49539        49547        49554
     0.25000        49549        49545        49541        49545        49543
     0.26700        49546        49547        49547        49547        49545
     0.28300        49543        49549        49538        49545        49547
     0.30000        49539        49542        49545        49545        49549
     0.31700        49546        49541        49537        49538        49539
     0.33300        49543        49541        49543        49551        49546
     0.35000        49539        49529        49534        49537        49533
     0.36700        49542        49531        49541        49525        49530
     0.38300        49526        49525        49522        49531        49527
     0.40000        49523        49523        49526        49526        49523
     0.41700        49530        49531        49529        49525        49521
     0.43300        49530        49526        49525        49530        49529
     0.45000        49525        49538        49534        49526        49535
     0.46700        49537        49526        49531        49523        49522
     0.48300        49531        49538        49530        49527        49535
     0.50000        49535        49537        49533        49530        49534
     0.51700        49529        49530        49539        49529        49531
     0.53300        49522        49523        49525        49527        49537
     0.55000        49523        49526        49530        49527        49517
     0.56700        49522        49521        49526        49509        49515
     0.58300        49514        49527        49523        49523        49515
     0.60000        49521        49513        49517        49510        49521
     0.61700        49529        49521        49519        49518        49522
     0.63300        49515        49518        49523        49523        49518
     0.65000        49518        49526        49529        49522        49527
     0.66700        49529        49537        49522        49514        49514
     0.68300        49519        49526        49523        49527        49530
     0.70000        49522        49517        49531        49523        49519
     0.71700        49522        49527        49526        49522        49518
     0.73300        49525        49525        49530        49522        49511
     0.75000        49518        49521        49523        49523        49522
     0.76700        49518        49510        49519        49515        49510
     0.78300        49515        49510        49523        49522        49510
     0.80000        49506        49518        49514        49514        49510
     0.81700        49515        49515        49511        49514        49519
     0.83300        49518        49510        49518        49515        49522
     0.85000        49515        49517        49519        49514        49513
     0.86700        49518        49518        49531        49526        49513
     0.88300        49521        49521        49523        49522        49522
     0.90000        49522        49525        49519        49518        49519
     0.91700        49521        49519        49518        49519        49518
     0.93300        49525        49522        49529        49519        49518
     0.95000        49521        49523        49522        49519        49533
     0.96700        49526        49518        49526        49523        49523
     0.98300        49525        49523        49519        49523        49534
     1.00000        49530        49529        49525        49527        49526
     1.01700        49527        49515        49533        49529        49527
     1.03300        49533        49527        49525        49527        49517
     1.05000        49522        49531        49530        49525        49525
     1.06700        49525        49525        49522        49515        49525
     1.08300        49523        49523        49521        49523        49525
     1.10000        49523        49541        49527        49530        49523
     1.11700        49529        49527        49530        49531        49527
     1.13300        49527        49533        49526        49525        49513
     1.15000        49531        49533        49530        49531        49523
     1.16700        49526        49519        49535        49529        49519
     1.18300        49525        49519        49521        49514        49517
     1.20000        49521        49521        49522        49511        49517
     1.21700        49515        49518        49513        49513        49514
     1.23300        49523        49517        49523        49518        49519
     1.25000        49511        49514        49521        49521        49513
     1.26700        49515        49511        49509        49518        49517
     1.28300        49507        49511        49506        49503        49498
     1.30000        49510        49502        49510        49503        49501
     1.31700        49509        49506        49509        49515        49506
     1.33300        49511        49513        49506        49518        49514
     1.35000        49519        49525        49514        49526        49533
     1.36700        49565        49615        49687        49793        49961
     1.38300        50193        50499        50887        51367        51958
     1.40000        52635        53438        54374        55434        56601
     1.41700        57896        59287        60785        62381        64085
     1.43300        65781        67667        69388        71272        73027
     1.45000        74913        76670        78206        79907        81393
     1.46700        82738        84004        85188        86204        87060
     1.48300        87751        88348        88873        89324        89618
     1.50000        89804        89862        89820        89581        89317
     1.51700        89144        88857        88468        88043        87543
     1.53300        86989        86403        85787        85170        84511
     1.55000        83855        83160        82436        81681        80939
     1.56700        80207        79487        78781        78104        77320
     1.58300        76568        75876        75138        74488        73847
     1.60000        73223        72524        71888        71273        70684
     1.61700        70140        69594        69020        68454        67967
     1.63300        67468        66965        66506        66063        65638
     1.65000        65223        64809        64323        63953        63544
     1.66700        63161        62810        62437        62072        61726
     1.68300        61368        61044        60720        60398        60088
     1.70000        59776        59501        59219        58927        58656
     1.71700        58397        58149        57888        57653        57425
     1.73300        57191        56981        56767        56568        56373
     1.75000        56171        55994        55824        55658        55499
     1.76700        55332        55190        55039        54903        54774
     1.78300        54646        54531        54399        54276        54172
     1.80000        54056        53955        53859        53778        53684
     1.81700        53590        53503        53412        53335        53255
     1.83300        53202        53119        53034        52968        52898
     1.85000        52831        52778        52705        52649        52586
     1.86700        52531        52470        52419        52362        52303
     1.88300        52249        52197        52130        52087        52037
     1.90000        51978        51931        51885        51843        51801
     1.91700        51753        51706        51658        51622        51575
     1.93300        51527        51495        51455        51419        51369
     1.95000        51334        51293        51253        51219        51178
     1.96700        51143        51105        51077        51054        51015
     1.98300        50979        50955        50921        50895        50863
     2.00000        50849        50818        50785        50766        50750
     2.01700        50730        50697        50685        50663        50645
     2.03300        50622        50606        50593        50565        50565
     2.05000        50545        50518        50506        50494        50487
     2.06700        50466        50455        50442        50427        50423
     2.08300        50399        50391        50381        50370        50362
     2.10000        50349        50333        50333        50315        50295
     2.11700        50297        50283        50266        50267        50254
     2.13300        50253        50230        50233        50222        50211
     2.15000        50206        50198        50198        50191        50189
     2.16700        50181        50190        50193        50199        50243
     2.18300        50331        50425        50486        50562        50607
     2.20000        50650        50686        50727        50761        50786
     2.21700        50817        50839        50849        50865        50873
     2.23300        50877        50886        50890        50895        50890
     2.25000        50891        50890        50886        50879        50870
     2.26700        50870        50846        50829        50811        50763
     2.28300        50717        50646        50579        50510        50423
     2.30000        50347        50303        50271        50243        50233
     2.31700        50223        50193        50165        50105        50074
     2.33300        50042        50025        50023        49998        49987
     2.35000        49962        49937        49934        49921        49893
     2.36700        49893        49879        49862        49851        49839
     2.38300        49837        49833        49823        49813        49806
     2.40000        49803        49802        49790        49794        49783
     2.41700        49778        49767        49757        49761        49749
     2.43300        49741        49730        49727        49726        49718
     2.45000        49717        49714        49697        49687        49693
     2.46700        49667        49674        49669        49645        49647
     2.48300        49642        49626        49633        49602        49605
     2.50000        49589        49583        49578        49562        49567
     2.51700        49551        49542        49531        49533        49530
     2.53300        49527        49511        49507        49494        49489
     2.55000        49483        49478        49471        49469        49467
     2.56700        49454        49459        49441        49427        49434
     2.58300        49433        49433        49421        49410        49403
     2.60000        49406        49390        49391        49379        49386
     2.61700        49379        49379        49365        49359        49351
     2.63300        49358        49351        49347        49342        49342
     2.65000        49343        49345        49355        49350        49346
     2.66700        49350        49350        49343        49342        49338
     2.68300        49339        49334        49341        49341        49341
     2.70000        49335        49341        49333        49345        49355
     2.71700        49350        49363        49370        49370        49377
     2.73300        49383        49406        49402        49407        49410
     2.75000        49422        49427        49437        49442        49442
     2.76700        49437        49447        49439        49450        49443
     2.78300        49443        49450        49443        49446        49449
     2.80000        49441        49445        49439        49434        49433
     2.81700        49434        49431        49427        49417        49426
     2.83300        49421        49422        49422        49417        49413
     2.85000        49417        49406        49390        49403        49403
     2.86700        49389        49398        49393        49394        49390
     2.88300        49407        49409        49415        49429        49463
     2.90000        49485        49506        49535        49583        49621
     2.91700        49669        49723        49794        49849        49923
     2.93300        49985        50062        50127        50203        50290
     2.95000        50359        50430        50513        50594        50670
     2.96700        50737        50807        50874        50934        50995
     2.98300        51042        51121        51158        51202        51227
     3.00000        51254        51294        51314        51342        51355
     3.01700        51367        51374        51377        51371        51385
     3.03300        51373        51371        51346        51338        51319
     3.05000        51299        51271        51253        51229        51197
     3.06700        51174        51157        51123        51093        51075
     3.08300        51041        51027        50991        50983        50945
     3.10000        50922        50909        50890        50889        50862
     3.11700        50854        50849        50833        50839        50817
     3.13300        50819        50806        50794        50791        50785
     3.15000        50786        50783        50771        50766        50753
     3.16700        50754        50754        50739        50718        50710
     3.18300        50697        50681        50673        50650        50637
     3.20000        50621        50601        50586        50559        50549
     3.21700        50523        50509        50485        50459        50430
     3.23300        50403        50385        50353        50329        50301
     3.25000        50283        50255        50229        50214        50185
     3.26700        50154        50127        50098        50082        50067
     3.28300        50037        50023        49997        49971        49950
     3.30000        49925        49926        49890        49869        49854
     3.31700        49837        49817        49806        49781        49765
     3.33300        49749        49725        49726        49710        49701
     3.35000        49694        49667        49657        49641        49638
     3.36700        49626        49609        49605        49585        49586
     3.38300        49570        49562        49558        49550        49547
     3.40000        49541        49527        49518        49513        49503
     3.41700        49497        49477        49487        49469        49465
     3.43300        49463        49459        49450        49454        49431
     3.45000        49433        49426        49417        49427        49418
     3.46700        49413        49411        49407        49393        49398
     3.48300        49387        49393        49382        49397        49386
     3.50000        49382        49386        49383        49385        49381
     3.51700        49383        49390        49394        49395        49393
     3.53300        49393        49411        49405        49417        49430
     3.55000        49439        49437        49453        49471        49477
     3.56700        49487        49506        49522        49525        49534
     3.58300        49545        49559        49575        49586        49594
     3.60000        49605        49619        49629        49637        49643
     3.61700        49651        49651        49662        49665        49670
     3.63300        49671        49678        49669        49670        49666
     3.65000        49674        49670        49655        49658        49657
     3.66700        49659        49653        49635        49641        49630
     3.68300        49633        49618        49613        49619        49617
     3.70000        49602        49602        49601        49597        49583
     3.71700        49583        49585        49579        49571        49577
     3.73300        49575        49558        49566        49565        49558
     3.75000        49555        49558        49555        49555        49546
     3.76700        49553        49537        49543        49534        49534
     3.78300        49530        49534        49534        49539        49530
     3.80000        49519        49519        49514        49519        49514
     3.81700        49523        49509        49503        49501        49502
     3.83300        49503        49506        49502        49499        49487
     3.85000        49497        49493        49494        49490        49483
     3.86700        49479        49471        49475        49465        49463
     3.88300        49459        49457        49449        49457        49445
     3.90000        49438        49443        49435        49423        49430
     3.91700        49425        49415        49413        49410        49409
     3.93300        49405        49401        49391        49386        49389
     3.95000        49383        49381        49382        49378        49378
     3.96700        49389        49383        49377        49386        49387
     3.98300        49387        49390        49386        49394        49383
     4.00000        49391        49389        49390        49391        49406
     4.01700        49391        49391        49398        49389        49406
     4.03300        49402        49406        49413        49430        49426
     4.05000        49438        49439        49457        49465        49495
     4.06700        49497        49519        49539        49567        49614
     4.08300        49651        49710        49774        49846        49927
     4.10000        50009        50115        50231        50379        50518
     4.11700        50681        50869        51071        51291        51521
     4.13300        51771        52037        52305        52575        52854
     4.15000        53144        53447        53754        54032        54314
     4.16700        54591        54854        55106        55362        55583
     4.18300        55786        55984        56170        56328        56463
     4.20000        56600        56689        56753        56816        56867
     4.21700        56907        56924        56948        56959        56935
     4.23300        56929        56940        56924        56931        56952
     4.25000        56984        57057        57167        57311        57527
     4.26700        57813        58177        58621        59165        59827
     4.28300        60548        61412        62365        63482        64617
     4.30000        65905        67307        68715        70164        71825
     4.31700        73311        75033        76661        78165        79859
     4.33300        81413        82900        84428        85860        87197
     4.35000        88481        89610        90620        91569        92418
     4.36700        93161        93838        94471        94969        95327
     4.38300        95631        95903        95950        95897        95871
     4.40000        95674        95458        95151        94717        94222
     4.41700        93691        93227        92602        91880        91137
     4.43300        90402        89550        88680        87873        87036
     4.45000        86151        85186        84262        83327        82454
     4.46700        81503        80566        79622        78733        77828
     4.48300        76772        75912        75025        74165        73377
     4.50000        72455        71624        70771        70039        69239
     4.51700        68440        67724        67027        66354        65667
     4.53300        65042        64390        63778        63162        62620
     4.55000        62052        61513        60977        60480        60016
     4.56700        59548        59129        58719        58304        57912
     4.58300        57529        57193        56847        56529        56222
     4.60000        55951        55675        55411        55176        54971
     4.61700        54763        54575        54403        54252        54127
     4.63300        54016        53922        53842        53780        53740
     4.65000        53727        53719        53722        53723        53755
     4.66700        53811        53871        53926        53987        54056
     4.68300        54134        54218        54315        54390        54463
     4.70000        54544        54610        54680        54743        54800
     4.71700        54842        54886        54920        54948        54962
     4.73300        54955        54967        54970        54946        54908
     4.75000        54896        54866        54832        54783        54747
     4.76700        54700        54635        54572        54512        54431
     4.78300        54356        54263        54180        54102        53995
     4.80000        53900        53802        53715        53626        53524
     4.81700        53436        53332        53230        53136        53028
     4.83300        52936        52843        52754        52667        52571
     4.85000        52463        52377        52285        52197        52106
     4.86700        52014        51929        51851        51761        51674
     4.88300        51601        51527        51447        51377        51302
     4.90000        51243        51163        51106        51039        50981
     4.91700        50927        50850        50815        50767        50715
     4.93300        50666        50621        50579        50533        50483
     4.95000        50438        50407        50373        50333        50295
     4.96700        50253        50221        50203        50173        50135
     4.98300        50111        50094        50063        50049        50022
     5.00000        49991        49978        49962        49945        49915
     5.01700        49905        49890        49866        49857        49837
     5.03300        49827        49797        49778        49774        49758
     5.05000        49738        49726        49719        49695        49695
     5.06700        49679        49673        49667        49657        49649
     5.08300        49638        49626        49613        49607        49605
     5.10000        49591        49595        49578        49566        49566
     5.11700        49562        49555        49542        49537        49546
     5.13300        49538        49526        49529        49523        49518
     5.15000        49514        49514        49505        49506        49503
     5.16700        49505        49499        49491        49487        49475
     5.18300        49481        49470        49459        49455        49449
     5.20000        49433        49413        49399        49390        49366
     5.21700        49371        49367        49370        49378        49390
     5.23300        49409        49438        49495        49561        49651
     5.25000        49755        49885        50051        50255        50499
     5.26700        50798        51143        51545        52026        52529
     5.28300        53127        53787        54506        55311        56151
     5.30000        57067        58043        59053        60089        61137
     5.31700        62234        63369        64461        65554        66767
     5.33300        67931        69084        70278        71636        72881
     5.35000        74332        75902        77472        79253        81275
     5.36700        83446        85941        88705        91872        95446
     5.38300        99354       103698       108466       113607       119172
     5.40000       125121       131528       138261       145372       152757
     5.41700       160488       168211       176450       184923       193782
     5.43300       202500       211645       220610       229640       238485
     5.45000       247577       256994       265989       275393       284127
     5.46700       292960       301684       310189       318545       326322
     5.48300       334055       341789       349363       357049       364085
     5.50000       371306       377709       383705       389620       395082
     5.51700       400125       405704       410249       413749       416688
     5.53300       419591       422561       424518       426074       426376
     5.55000       426060       425332       424565       422455       419612
     5.56700       416303       412432       407413       401707       394929
     5.58300       388298       381437       373612       365465       357013
     5.60000       348255       338513       329240       319511       309321
     5.61700       299783       290316       280514       271226       262401
     5.63300       253174       244070       235460       227355       219317
     5.65000       211449       203813       196293       189636       183114
     5.66700       176465       170500       164794       159188       153893
     5.68300       148920       144063       139434       135246       131225
     5.70000       127295       123530       119977       116561       113464
     5.71700       110458       107497       104672       102083        99522
     5.73300        97104        94911        92814        90850        88929
     5.75000        87041        85239        83695        82123        80603
     5.76700        79250        78057        76734        75618        74546
     5.78300        73623        72723        71909        71204        70555
     5.80000        69998        69480        69022        68722        68488
     5.81700        68360        68344        68350        68446        68607
     5.83300        68843        69183        69550        69968        70423
     5.85000        70924        71395        71937        72544        73096
     5.86700        73723        74363        74968        75480        75972
     5.88300        76546        77070        77476        77874        78254
     5.90000        78531        78811        79074        79270        79438
     5.91700        79545        79557        79563        79519        79379
     5.93300        79257        79119        78925        78657        78342
     5.95000        77977        77542        77069        76662        76173
     5.96700        75677        75142        74576        74051        73512
     5.98300        72932        72264        71721        71115        70548
     6.00000        69986        69372        68734        68170        67646
     6.01700        67074        66546        65981        65455        64954
     6.03300        64413        63934        63433        62969        62502
     6.05000        62037        61574        61145        60717        60342
     6.06700        59955        59556        59173        58804        58443
     6.08300        58125        57804        57500        57215        56903
     6.10000        56623        56344        56100        55874        55632
     6.11700        55395        55178        54978        54766        54570
     6.13300        54395        54208        54043        53902        53740
     6.15000        53580        53435        53316        53190        53086
     6.16700        52955        52835        52731        52627        52541
     6.18300        52431        52351        52261        52179        52091
     6.20000        52014        51939        51861        51789        51722
     6.21700        51657        51590        51538        51483        51435
     6.23300        51385        51338        51299        51277        51239
     6.25000        51206        51186        51151        51131        51117
     6.26700        51109        51113        51093        51090        51099
     6.28300        51103        51121        51126        51134        51151
     6.30000        51161        51170        51153        51155        51155
     6.31700        51163        51153        51134        51121        51118
     6.33300        51115        51122        51114        51133        51129
     6.35000        51170        51185        51214        51251        51281
     6.36700        51319        51346        51374        51409        51434
     6.38300        51462        51495        51502        51515        51519
     6.40000        51519        51523        51538        51541        51550
     6.41700        51526        51513        51490        51482        51477
     6.43300        51451        51419        51402        51386        51347
     6.45000        51321        51285        51249        51226        51197
     6.46700        51167        51129        51093        51051        51014
     6.48300        50983        50954        50906        50874        50830
     6.50000        50795        50773        50731        50705        50667
     6.51700        50637        50603        50563        50537        50497
     6.53300        50482        50449        50423        50383        50361
     6.55000        50327        50306        50278        50246        50222
     6.56700        50195        50169        50151        50119        50097
     6.58300        50078        50057        50034        50017        49989
     6.60000        49970        49953        49939        49913        49894
     6.61700        49887        49873        49841        49834        49811
     6.63300        49795        49786        49767        49766        49749
     6.65000        49729        49723        49699        49689        49681
     6.66700        49673        49661        49643        49633        49618
     6.68300        49623        49611        49599        49585        49574
     6.70000        49571        49570        49565        49558        49557
     6.71700        49557        49554        49559        49575        49601
     6.73300        49614        49645        49666        49707        49755
     6.75000        49802        49879        49957        50043        50131
     6.76700        50234        50353        50485        50615        50753
     6.78300        50905        51071        51227        51383        51553
     6.80000        51721        51909        52086        52275        52454
     6.81700        52633        52796        52962        53135        53291
     6.83300        53458        53611        53754        53880        53987
     6.85000        54107        54212        54316        54426        54516
     6.86700        54582        54646        54702        54750        54812
     6.88300        54863        54883        54912        54904        54919
     6.90000        54926        54923        54938        54934        54927
     6.91700        54914        54891        54855        54818        54771
     6.93300        54746        54700        54656        54578        54536
     6.95000        54472        54410        54351        54279        54215
     6.96700        54135        54070        54008        53920        53855
     6.98300        53768        53670        53580        53500        53403
     7.00000        53336        53250        53175        53082        52987
     7.01700        52910        52824        52727        52641        52569
     7.03300        52473        52401        52317        52255        52185
     7.05000        52123        52078        52027        51981        51938
     7.06700        51913        51887        51889        51869        51891
     7.08300        51907        51946        51990        52042        52105
     7.10000        52170        52242        52325        52418        52517
     7.11700        52619        52728        52828        52934        53036
     7.13300        53146        53266        53364        53459        53560
     7.15000        53658        53758        53864        53976        54086
     7.16700        54180        54272        54386        54502        54623
     7.18300        54759        54946        55139        55363        55632
     7.20000        55956        56364        56855        57468        58199
     7.21700        59073        60089        61270        62644        64246
     7.23300        66021        68163        70347        72863        75733
     7.25000        78698        82110        85691        89490        93511
     7.26700        97815       102393       107133       112148       117185
     7.28300       122483       127792       133514       139218       145133
     7.30000       151125       157375       163820       170412       176898
     7.31700       183583       190263       197003       203696       210662
     7.33300       217744       224885       232053       238838       246212
     7.35000       253390       260521       267390       274144       281184
     7.36700       288460       296149       303347       310366       317811
     7.38300       325479       333348       340629       347585       355483
     7.40000       362963       370306       377583       384710       392411
     7.41700       400201       408376       415803       422863       430175
     7.43300       438080       446247       454688       463116       470177
     7.45000       477364       484820       491912       498993       505942
     7.46700       512300       520043       527676       534148       541654
     7.48300       549715       556966       564239       571429       579174
     7.50000       585674       592655       600597       608026       616627
     7.51700       624797       632291       639657       646889       653579
     7.53300       660673       668388       675429       682180       688366
     7.55000       696156       704225       711164       719430       726805
     7.56700       734331       742485       749489       757777       762910
     7.58300       767880       776290       783895       791333       797907
     7.60000       804233       811227       817717       824352       831184
     7.61700       837378       845093       851330       858599       865001
     7.63300       872473       878715       883799       886837       885709
     7.65000       872387       819140       683283       465431       269570
     7.66700       165229       124350       109278       102777        98858
     7.68300        95903        93342        91033        88901        86923
     7.70000        85014        83291        81553        80030        78738
     7.71700        77458        76201        75046        74017        73029
     7.73300        72047        71116        70354        69592        68768
     7.75000        68083        67430        66819        66229        65651
     7.76700        65174        64710        64174        63773        63373
     7.78300        62997        62624        62250        61909        61610
     7.80000        61332        61057        60828        60622        60420
     7.81700        60253        60118        60000        59888        59825
     7.83300        59753        59699        59661        59633        59624
     7.85000        59597        59612        59624        59619        59591
     7.86700        59591        59565        59543        59479        59417
     7.88300        59344        59235        59125        59005        58875
     7.90000        58724        58552        58367        58193        58001
     7.91700        57809        57631        57421        57233        57024
     7.93300        56820        56633        56436        56252        56079
     7.95000        55924        55762        55604        55446        55282
     7.96700        55127        55011        54892        54779        54663
     7.98300        54559        54462        54368        54255        54158
     8.00000        54060        53984        53902        53832        53756
     8.01700        53690        53611        53542        53476        53406
     8.03300        53342        53300        53226        53175        53132
     8.05000        53082        53035        52986        52946        52907
     8.06700        52870        52834        52804        52758        52726
     8.08300        52686        52662        52619        52583        52561
     8.10000        52523        52497        52450        52415        52402
     8.11700        52363        52343        52318        52286        52247
     8.13300        52202        52159        52118        52058        51997
     8.15000        51938        51867        51795        51703        51623
     8.16700        51502        51387        51274        51139        51009
     8.18300        50874        50738        50594        50450        50321
     8.20000        50189        50066        49946        49838        49762
     8.21700        49675        49610        49563        49515        49487
     8.23300        49470        49467        49478        49495        49522
     8.25000        49565        49627        49690        49779        49882
     8.26700        49971        50105        50250        50401        50565
     8.28300        50769        50969        51185        51423        51685
     8.30000        51953        52233        52527        52851        53164
     8.31700        53516        53852        54208        54568        54915
     8.33300        55258        55604        55938        56278        56593
     8.35000        56905        57196        57464        57715        57928
     8.36700        58140        58295        58456        58563        58637
     8.38300        58700        58717        58725        58721        58671
     8.40000        58587        58487        58357        58200        58020
     8.41700        57828        57621        57464        57221        57008
     8.43300        56777        56528        56304        56067        55840
     8.45000        55600        55372        55130        54886        54662
     8.46700        54446        54232        54008        53800        53592
     8.48300        53396        53194        53011        52847        52669
     8.50000        52523        52377        52222        52075        51941
     8.51700        51810        51685        51557        51457        51342
     8.53300        51231        51129        51038        50954        50867
     8.55000        50794        50714        50633        50562        50497
     8.56700        50417        50367        50309        50267        50199
     8.58300        50147        50103        50067        50014        49982
     8.60000        49942        49905        49875        49838        49810
     8.61700        49781        49749        49727        49709        49681
     8.63300        49653        49631        49623        49590        49582
     8.65000        49559        49545        49519        49511        49501
     8.66700        49493        49477        49465        49445        49435
     8.68300        49430        49417        49421        49422        49410
     8.70000        49413        49422        49431        49426        49455
     8.71700        49469        49514        49557        49611        49686
     8.73300        49779        49887        50029        50195        50387
     8.75000        50637        50930        51258        51651        52114
     8.76700        52625        53223        53904        54675        55524
     8.78300        56453        57492        58629        59849        61229
     8.80000        62688        64278        65963        67802        69600
     8.81700        71655        73656        75948        78132        80645
     8.83300        83028        85608        88195        90896        93557
     8.85000        96407        99356       102363       105329       108346
     8.86700       111250       114331       117577       120788       124127
     8.88300       127304       130397       133554       136630       140135
     8.90000       143322       146589       149880       153003       156114
     8.91700       159212       162013       164973       167942       171046
     8.93300       174108       177074       179378       181603       184003
     8.95000       186332       188657       190827       192720       194010
     8.96700       195194       196062       196882       196991       197038
     8.98300       196543       195459       193846       191785       189204
     9.00000       186026       182390       178106       173091       167373
     9.01700       161287       154958       148692       142519       136298
     9.03300       130375       124678       119189       114023       109233
     9.05000       104862       100773        97063        93647        90584
     9.06700        87800        85196        82918        80649        78726
     9.08300        76912        75202        73725        72213        70867
     9.10000        69722        68526        67486        66457        65531
     9.11700        64679        63813        63029        62345        61676
     9.13300        61048        60452        59893        59372        58880
     9.15000        58416        57992        57545        57163        56781
     9.16700        56409        56072        55752        55466        55178
     9.18300        54922        54662        54412        54168        53938
     9.20000        53738        53550        53367        53198        53044
     9.21700        52875        52736        52594        52473        52341
     9.23300        52223        52113        51990        51881        51782
     9.25000        51703        51598        51517        51431        51366
     9.26700        51287        51222        51159        51089        51035
     9.28300        50977        50917        50857        50818        50767
     9.30000        50735        50683        50639        50605        50566
     9.31700        50523        50502        50471        50427        50395
     9.33300        50365        50349        50322        50291        50266
     9.35000        50239        50214        50187        50165        50142
     9.36700        50126        50114        50099        50075        50053
     9.38300        50042        50026        50015        49989        49981
     9.40000        49970        49959        49945        49929        49918
     9.41700        49901        49889        49878        49865        49854
     9.43300        49849        49845        49830        49818        49810
     9.45000        49794        49790        49779        49773        49774
     9.46700        49761        49754        49750        49731        49729
     9.48300        49747        49729        49701        49697        49694
     9.50000        49697        49694        49698        49678        49673
     9.51700        49675        49678        49666        49661        49662
     9.53300        49662        49654        49658        49646        49647
     9.55000        49642        49638        49630        49635        49622
     9.56700        49623        49625        49615        49602        49603
     9.58300        49591        49601        49591        49582        49575
     9.60000        49577        49578        49567        49570        49553
     9.61700        49546        49533        49530        49530        49531
     9.63300        49515        49506        49497        49498        49486
     9.65000        49474        49470        49450        49447        49426
     9.66700        49402        49403        49383        49374        49354
     9.68300        49337        49330        49297        49295        49282
     9.70000        49261        49247        49230        49211        49198
     9.71700        49195        49186        49170        49161        49153
     9.73300        49151        49143        49138        49134        49122
     9.75000        49122        49130        49113        49122        49111
     9.76700        49109        49117        49110        49102        49101
     9.78300        49103        49091        49102        49094        49095
     9.80000        49095        49090        49087        49089        49099
     9.81700        49094        49090        49095        49107        49121
     9.83300        49114        49119        49119        49135        49145
     9.85000        49155        49157        49177        49187        49194
     9.86700        49197        49206        49207        49221        49229
     9.88300        49230        49234        49251        49247        49251
     9.90000        49262        49257        49263        49265        49270
     9.91700        49271        49277        49273        49273        49274
     9.93300        49274        49270        49265        49259        49266
     9.95000        49270        49271        49267        49271        49266
     9.96700        49278        49263        49269        49263        49259
     9.98300        49258        49246        49251        49245        49243
    10.00000        49249        49242        49241        49239        49227
    10.01700        49230        49230        49229        49222        49214
    10.03300        49217        49217        49211        49215        49211
    10.05000        49198        49193        49197        49191        49194
    10.06700        49193        49186        49181        49179        49179
    10.08300        49174        49178        49173        49181        49167
    10.10000        49161        49165        49169        49159        49161
    10.11700        49158        49157        49162        49154        49158
    10.13300        49147        49157        49149        49143        49138
    10.15000        49139        49133        49139        49133        49137
    10.16700        49131        49127        49121        49130        49133
    10.18300        49121        49130        49127        49118        49122
    10.20000        49117        49118        49121        49118        49113
    10.21700        49110        49118        49109        49105        49119
    10.23300        49113        49110        49109        49107        49106
    10.25000        49098        49105        49103        49111        49114
    10.26700        49113        49118        49111        49114        49119
    10.28300        49110        49109        49113        49113        49106
    10.30000        49103        49103        49107        49106        49111
    10.31700        49111        49109        49102        49118        49107
    10.33300        49109        49111        49110        49113        49111
    10.35000        49114        49111        49119        49121        49121
    10.36700        49131        49134        49129        49134        49150
    10.38300        49149        49157        49159        49170        49174
    10.40000        49178        49197        49206        49207        49226
    10.41700        49233        49258        49265        49273        49303
    10.43300        49310        49322        49334        49358        49370
    10.45000        49397        49426        49430        49446        49454
    10.46700        49481        49498        49511        49525        49534
    10.48300        49555        49569        49583        49595        49597
    10.50000        49610        49623        49619        49634        49658
    10.51700        49654        49665        49673        49679        49690
    10.53300        49715        49725        49745        49771        49795
    10.55000        49811        49858        49875        49941        49981
    10.56700        50033        50106        50166        50245        50338
    10.58300        50422        50534        50655        50779        50917
    10.60000        51074        51230        51397        51582        51785
    10.61700        51987        52206        52429        52663        52890
    10.63300        53152        53408        53674        53951        54210
    10.65000        54478        54734        55000        55287        55543
    10.66700        55820        56072        56299        56536        56781
    10.68300        57016        57225        57411        57596        57757
    10.70000        57889        57991        58107        58196        58259
    10.71700        58335        58344        58341        58319        58281
    10.73300        58248        58213        58132        58021        57913
    10.75000        57799        57679        57537        57396        57237
    10.76700        57068        56865        56693        56508        56311
    10.78300        56130        55908        55703        55476        55263
    10.80000        55059        54863        54656        54468        54270
    10.81700        54067        53887        53710        53531        53362
    10.83300        53200        53027        52868        52701        52545
    10.85000        52414        52266        52127        51994        51861
    10.86700        51743        51631        51529        51415        51314
    10.88300        51214        51123        51035        50946        50869
    10.90000        50787        50715        50635        50566        50509
    10.91700        50439        50378        50321        50263        50206
    10.93300        50161        50118        50057        50031        49991
    10.95000        49945        49905        49869        49842        49810
    10.96700        49778        49738        49726        49685        49655
    10.98300        49643        49611        49582        49574        49553
    11.00000        49531        49507        49498        49470        49453
    11.01700        49447        49434        49418        49402        49398
    11.03300        49387        49371        49347        49347        49339
    11.05000        49327        49317        49310        49310        49290
    11.06700        49293        49278        49283        49275        49262
    11.08300        49243        49255        49235        49241        49226
    11.10000        49227        49217        49207        49207        49203
    11.11700        49202        49203        49205        49190        49193
    11.13300        49191        49183        49181        49177        49169
    11.15000        49173        49166        49170        49170        49165
    11.16700        49163        49154        49154        49154        49142
    11.18300        49145        49145        49149        49141        49127
    11.20000        49135        49131        49127        49117        49123
    11.21700        49125        49113        49118        49113        49114
    11.23300        49106        49110        49122        49105        49107
    11.25000        49110        49110        49105        49110        49106
    11.26700        49111        49105        49101        49105        49109
    11.28300        49095        49106        49106        49095        49094
    11.30000        49099        49105        49099        49098        49098
    11.31700        49091        49095        49097        49099        49095
    11.33300        49099        49106        49097        49097        49094
    11.35000        49102        49099        49107        49095        49105
    11.36700        49103        49102        49105        49089        49098
    11.38300        49101        49098        49097        49106        49091
    11.40000        49102        49095        49093        49091        49102
    11.41700        49101        49097        49094        49098        49107
    11.43300        49093        49095        49099        49095        49095
    11.45000        49101        49101        49101        49095        49097
    11.46700        49098        49097        49082        49098        49087
    11.48300        49087        49095        49097        49083        49089
    11.50000        49095        49099        49090        49094        49091
    11.51700        49094        49089        49101        49094        49101
    11.53300        49102        49109        49114        49113        49122
    11.55000        49113        49121        49130        49143        49149
    11.56700        49163        49174        49179        49195        49218
    11.58300        49223        49235        49259        49285        49303
    11.60000        49342        49366        49407        49431        49481
    11.61700        49521        49573        49633        49674        49731
    11.63300        49791        49855        49913        49994        50058
    11.65000        50130        50190        50266        50343        50409
    11.66700        50493        50566        50630        50687        50753
    11.68300        50830        50885        50953        50994        51038
    11.70000        51094        51122        51159        51193        51215
    11.71700        51227        51245        51259        51265        51281
    11.73300        51277        51267        51255        51246        51237
    11.75000        51211        51194        51161        51147        51117
    11.76700        51077        51041        51019        50973        50934
    11.78300        50903        50858        50823        50786        50750
    11.80000        50701        50662        50631        50589        50541
    11.81700        50498        50455        50410        50375        50349
    11.83300        50299        50265        50231        50189        50134
    11.85000        50115        50074        50042        50017        49986
    11.86700        49957        49923        49894        49857        49833
    11.88300        49803        49783        49763        49742        49718
    11.90000        49695        49673        49646        49627        49615
    11.91700        49590        49578        49553        49539        49521
    11.93300        49494        49479        49474        49451        49438
    11.95000        49423        49423        49403        49399        49389
    11.96700        49389        49378        49369        49358        49346
    11.98300        49341        49346        49337        49333        49323
    12.00000        49325        49310        49311        49319        49315
    12.01700        49311        49314        49327        49318        49323
    12.03300        49343        49342        49335        49354        49358
    12.05000        49357        49361        49367        49375        49382
    12.06700        49391        49394        49402        49406        49402
    12.08300        49403        49414        49411        49425        49425
    12.10000        49423        49430        49427        49429        49426
    12.11700        49425        49415        49425        49417        49414
    12.13300        49411        49407        49397        49399        49398
    12.15000        49389        49385        49390        49390        49378
    12.16700        49374        49370        49369        49355        49347
    12.18300        49351        49346        49338        49338        49330
    12.20000        49322        49315        49295        49298        49293
    12.21700        49291        49273        49271        49259        49253
    12.23300        49249        49230        49219        49219        49215
    12.25000        49203        49195        49189        49193        49179
    12.26700        49175        49174        49169        49157        49163
    12.28300        49150        49141        49143        49131        49131
    12.30000        49123        49129        49123        49125        49115
    12.31700        49118        49115        49113        49115        49113
    12.33300        49115        49114        49115        49115        49117
    12.35000        49115        49115        49111        49115        49114
    12.36700        49110        49113        49106        49098        49105
    12.38300        49103        49095        49098        49098        49094
    12.40000        49094        49090        49085        49082        49091
    12.41700        49090        49086        49093        49083        49086
    12.43300        49086        49095        49086        49083        49101
    12.45000        49105        49095        49086        49086        49089
    12.46700        49085        49086        49090        49093        49091
    12.48300        49089        49089        49094        49082        49085
    12.50000        49086        49078        49083        49091        49089
    12.51700        49085        49082        49085        49082        49086
    12.53300        49093        49090        49086        49105        49093
    12.55000        49101        49103        49107        49105        49109
    12.56700        49099        49103        49117        49111        49121
    12.58300        49107        49114        49114        49114        49125
    12.60000        49117        49111        49127        49122        49114
    12.61700        49118        49130        49127        49125        49122
    12.63300        49121        49130        49129        49117        49126
    12.65000        49122        49121        49117        49117        49113
    12.66700        49118        49121        49111        49122        49111
    12.68300        49109        49110        49102        49099        49106
    12.70000        49105        49109        49110        49106        49103
    12.71700        49099        49110        49099        49102        49102
    12.73300        49107        49097        49099        49095        49091
    12.75000        49093        49093        49093        49094        49101
    12.76700        49091        49086        49091        49086        49083
    12.78300        49090        49083        49082        49087        49087
    12.80000        49087        49098        49085        49085        49095
    12.81700        49090        49094        49085        49087        49082
    12.83300        49081        49082        49082        49080        49080
    12.85000        49085        49091        49086        49081        49085
    12.86700        49077        49083        49076        49074        49081
    12.88300        49081        49081        49081        49091        49074
    12.90000        49081        49086        49086        49085        49083
    12.91700        49082        49081        49081        49083        49080
    12.93300        49081        49076        49080        49082        49073
    12.95000        49078        49085        49074        49087        49082
    12.96700        49078        49074        49090        49076        49085
    12.98300        49081        49078        49086        49077        49081
    13.00000        49086        49081        49097        49078        49080
    13.01700        49069        49081        49081        49081        49082
    13.03300        49074        49080        49087        49073        49085
    13.05000        49076        49082        49080        49074        49076
    13.06700        49078        49072        49077        49074        49077
    13.08300        49077        49076        49078        49078        49074
    13.10000        49077        49073        49076        49068        49069
    13.11700        49073        49069        49058        49066        49061
    13.13300        49072        49070        49064        49056        49061
    13.15000        49076        49068        49068        49074        49070
    13.16700        49058        49073        49074        49066        49068
    13.18300        49064        49076        49072        49072        49069
    13.20000        49074        49070        49064        49066        49065
    13.21700        49065        49074        49062        49060        49066
    13.23300        49065        49069        49050        49061        49062
    13.25000        49058        49050        49054        49053        49052
    13.26700        49070        49056        49054        49046        49054
    13.28300        49056        49048        49049        49054        49046
    13.30000        49056        49050        49049        49048        49052
    13.31700        49054        49049        49045        49056        49056
    13.33300        49046        49057        49058        49052        49048
    13.35000        49045        49044        49042        49052        49042
    13.36700        49049        49045        49052        49045        49048
    13.38300        49056        49053        49046        49046        49050
    13.40000        49053        49050        49053        49052        49045
    13.41700        49056        49052        49057        49061        49054
    13.43300        49050        49061        49064        49062        49061
    13.45000        49062        49060        49066        49068        49062
    13.46700        49060        49061        49064        49065        49068
    13.48300        49058        49057        49061        49065        49066
    13.50000        49064        49061        49072        49062        49053
    13.51700        49060        49061        49061        49052        49064
    13.53300        49044        49049        49054        49049        49049
    13.55000        49045        49042        49040        49038        49033
    13.56700        49053        49036        49036        49048        49032
    13.58300        49030        49034        49022        49036        49041
    13.60000        49037        49029        49026        49029        49024
    13.61700        49022        49026        49012        49024        49021
    13.63300        49016        49029        49017        49022        49018
    13.65000        49022        49016        49025        49026        49025
    13.66700        49022        49025        49017        49022        49026
    13.68300        49028        49032        49014        49018        49022
    13.70000        49028        49030        49022        49028        49012
    13.71700        49026        49029        49024        49021        49017
    13.73300        49022        49016        49026        49020        49021
    13.75000        49017        49017        49018        49024        49022
    13.76700        49021        49016        49022        49018        49012
    13.78300        49022        49020        49013        49020        49014
    13.80000        49012        49024        49018        49018        49013
    13.81700        49017        49008        49018        49005        49014
    13.83300        49008        49009        49016        49010        49008
    13.85000        49014        49018        49013        49022        49014
    13.86700        49020        49005        49013        49010        49016
    13.88300        49013        49012        49013        49014        49020
    13.90000        49006        49009        49010        49000        49005
    13.91700        49010        49009        49014        49012        49020
    13.93300        49013        49022        49014        49024        49028
    13.95000        49018        49034        49030        49030        49042
    13.96700        49038        49049        49050        49049        49062
    13.98300        49069        49068        49077        49089        49097
    14.00000        49114        49113        49114        49126        49129
    14.01700        49143        49147        49162        49175        49189
    14.03300        49203        49211        49223        49246        49247
    14.05000        49266        49278        49299        49310        49329
    14.06700        49341        49353        49367        49385        49401
    14.08300        49421        49431        49438        49443        49458
    14.10000        49471        49494        49510        49523        49533
    14.11700        49531        49551        49553        49561        49575
    14.13300        49575        49577        49581        49583        49594
    14.15000        49590        49579        49581        49582        49587
    14.16700        49581        49574        49570        49565        49561
    14.18300        49559        49557        49550        49535        49527
    14.20000        49531        49509        49505        49497        49482
    14.21700        49481        49465        49457        49446        49438
    14.23300        49421        49414        49406        49387        49375
    14.25000        49363        49365        49347        49337        49321
    14.26700        49307        49310        49281        49287        49274
    14.28300        49267        49257        49246        49227        49230
    14.30000        49226        49221        49205        49195        49190
    14.31700        49186        49186        49179        49166        49162
    14.33300        49166        49166        49155        49146        49139
    14.35000        49129        49131        49138        49125        49122
    14.36700        49115        49115        49119        49111        49102
    14.38300        49106        49102        49101        49097        49089
    14.40000        49082        49082        49093        49087        49086
    14.41700        49076        49080        49072        49074        49072
    14.43300        49066        49065        49072        49064        49054
    14.45000        49048        49056        49060        49052        49053
    14.46700        49057        49052        49057        49057        49048
    14.48300        49046        49038        49045        49045        49050
    14.50000        49046        49033        49029        49026        49033
    14.51700        49042        49032        49022        49018        49026
    14.53300        49029        49021        49029        49024        49025
    14.55000        49025        49036        49021        49026        49018
    14.56700        49024        49034        49026        49026        49021
    14.58300        49018        49016        49024        49013        49017
    14.60000        49018        49013        49012        49017        49014
    14.61700        49012        49009        49012        49013        49005
    14.63300        49012        49008        49013        49014        49009
    14.65000        49016        49017        49005        49006        49008
    14.66700        49012        49018        49005        49002        49001
    14.68300        48997        49000        49000        48996        49000
    14.70000        49000        48981        49000        48996        48996
    14.71700        48988        48997        48996        48998        48989
    14.73300        48996        48982        48997        48990        48998
    14.75000        49000        48994        48996        49000        48998
    14.76700        48996        48998        49004        49006        49005
    14.78300        49016        49013        49009        49024        49014
    14.80000        49024        49009        49021        49020        49020
    14.81700        49025        49018        49022        49028        49040
    14.83300        49040        49042        49037        49037        49052
    14.85000        49048        49050        49050        49053        49057
    14.86700        49054        49057        49065        49061        49070
    14.88300        49073        49082        49078        49070        49083
    14.90000        49081        49081        49086        49076        49082
    14.91700        49082        49078        49082        49072        49090
    14.93300        49089        49086        49090        49091        49083
    14.95000        49095        49085        49097        49087        49087
    14.96700        49089        49093        49077        49087        49085
    14.98300        49082        49077        49074        49074        49064
    15.00000        49073        49070        49064        49061        49064
    15.01700        49064        49054        49054        49054        49045
    15.03300        49046        49041        49050        49038        49052
    15.05000        49052        49042        49038        49036        49044
    15.06700        49040        49042        49037        49030        49032
    15.08300        49024        49028        49029        49029        49028
    15.10000        49032        49029        49021        49025        49022
    15.11700        49029        49020        49025        49016        49013
    15.13300        49006        49014        49010        49014        49004
    15.15000        49014        49012        49025        49010        49009
    15.16700        49014        49010        49017        49013        49002
    15.18300        49001        49005        49006        49010        49000
    15.20000        49006        49000        49008        49010        49006
    15.21700        49000        49005        49005        49008        49001
    15.23300        49001        48997        48998        48996        48990
    15.25000        48994        48994        48998        48988        48993
    15.26700        48985        48997        48993        48986        48988
    15.28300        48989        48990        48994        48992        48989
    15.30000        48992        48994        48989        48990        48988
    15.31700        48980        48993        48986        48996        48984
    15.33300        48980        48989        48989        48980        48997
    15.35000        48982        48981        48992        48984        48986
    15.36700        48992        48984        48980        48978        48977
    15.38300        48985        48988        48984        48988        48982
    15.40000        48988        48989        48977        48981        48980
    15.41700        48982        48986        48988        48997        48985
    15.43300        48985        48994        48981        48989        48985
    15.45000        48993        48997        48996        48994        48997
    15.46700        48984        48988        48978        48994        48993
    15.48300        48988        48996        49001        48998        48996
    15.50000        48990        49009        49002        49002        49012
    15.51700        49008        48998        49014        49005        49014
    15.53300        49016        49022        49021        49024        49028
    15.55000        49021        49034        49030        49028        49032
    15.56700        49033        49033        49037        49040        49040
    15.58300        49038        49053        49049        49050        49054
    15.60000        49052        49050        49044        49061        49058
    15.61700        49050        49060        49061        49057        49050
    15.63300        49060        49053        49061        49052        49054
    15.65000        49046        49050        49052        49050        49054
    15.66700        49048        49046        49053        49052        49052
    15.68300        49054        49056        49048        49053        49053
    15.70000        49049        49049        49038        49038        49040
    15.71700        49041        49037        49038        49046        49041
    15.73300        49042        49042        49041        49037        49030
    15.75000        49028        49030        49028        49032        49028
    15.76700        49036        49029        49024        49030        49032
    15.78300        49036        49032        49037        49028        49029
    15.80000        49029        49037        49030        49037        49030
    15.81700        49036        49036        49029        49038        49028
    15.83300        49022        49033        49038        49032        49033
    15.85000        49029        49024        49025        49025        49038
    15.86700        49041        49034        49030        49037        49036
    15.88300        49037        49030        49034        49036        49034
    15.90000        49033        49022        49030        49033        49026
    15.91700        49030        49030        49028        49022        49030
    15.93300        49026        49030        49028        49029        49018
    15.95000        49032        49029        49024        49028        49029
    15.96700        49025        49021        49029        49022        49032
    15.98300        49026        49017        49025        49022        49029
    16.00000        49026        49030        49021        49016        49021
    16.01700        49016        49005        49016        49016        49016
    16.03300        49018        49009        49006        49002        49009
    16.05000        49001        49010        49009        49000        48998
    16.06700        49000        49009        49002        49002        49002
    16.08300        48984        48996        48990        48989        48989
    16.10000        49001        48989        48998        48997        48982
    16.11700        48986        48992        48981        48988        48985
    16.13300        48985        48981        48992        48981        48984
    16.15000        48982        48981        48980        48988        48981
    16.16700        48978        48980        48973        48985        48982
    16.18300        48973        48989        48977        48970        48970
    16.20000        48968        48962        48964        48968        48964
    16.21700        48961        48958        48962        48954        48968
    16.23300        48964        48966        48972        48961        48964
    16.25000        48958        48964        48968        48949        48960
    16.26700        48958        48977        48954        48956        48964
    16.28300        48972        48968        48968        48968        48972
    16.30000        48966        48976        48958        48960        48957
    16.31700        48961        48962        48957        48966        48962
    16.33300        48957        48960        48962        48950        48954
    16.35000        48957        48958        48957        48960        48956
    16.36700        48953        48953        48957        48949        48957
    16.38300        48946        48952        48945        48949        48960
    16.40000        48944        48953        48949        48954        48954
    16.41700        48956        48958        48954        48968        48952
    16.43300        48953        48945        48950        48960        48946
    16.45000        48953        48948        48950        48953        48953
    16.46700        48945        48938        48953        48956        48953
    16.48300        48949        48937        48954        48956        48948
    16.50000        48957        48960        48956        48952        48954
    16.51700        48952        48946        48946        48942        48944
    16.53300        48937        48945        48938        48940        48949
    16.55000        48946        48945        48940        48946        48949
    16.56700        48945        48941        48950        48942        48950
    16.58300        48946        48948        48948        48957        48937
    16.60000        48950        48945        48953        48952        48942
    16.61700        48962        48949        48953        48952        48957
    16.63300        48954        48957        48953        48953        48953
    16.65000        48961        48961        48957        48950        48946
    16.66700        48950        48962        48960        48957        48962
    16.68300        48966        48957        48957        48968        48954
    16.70000        48957        48953        48957        48961        48956
    16.71700        48953        48956        48958        48960        48958
    16.73300        48956        48960        48965        48966        48970
    16.75000        48964        48969        48966        48969        48976
    16.76700        48974        48978        48981        48966        48980
    16.78300        48980        48988        48989        48982        48982
    16.80000        48993        48982        48996        48994        48993
    16.81700        48994        48997        48988        49000        49005
    16.83300        49001        49000        49002        49005        49000
    16.85000        49008        49005        49006        49006        49008
    16.86700        49006        49009        49013        49009        49009
    16.88300        49012        49004        49018        49016        49008
    16.90000        49018        49013        49017        49013        49017
    16.91700        49014        49014        49008        48998        49012
    16.93300        49012        49013        49013        49008        49004
    16.95000        49005        49009        49006        49008        49009
    16.96700        49002        49001        49010        49010        49008
    16.98300        49002        49002        49000        48992        49002
    17.00000        49000        48994        48992        48996        48997
    17.01700        49000        48994        48989        48992        48984
    17.03300        48985        48976        48996        48980        48984
    17.05000        48969        48970        48974        48968        48976
    17.06700        48972        48970        48972        48964        48968
    17.08300        48977        48965        48972        48964        48962
    17.10000        48954        48957        48964        48949        48956
    17.11700        48958        48956        48961        48956        48946
    17.13300        48949        48946        48944        48945        48944
    17.15000        48948        48937        48940        48945        48944
    17.16700        48944        48938        48942        48948        48946
    17.18300        48936        48936        48938        48934        48933
    17.20000        48940        48942        48940        48937        48938
    17.21700        48938        48945        48932        48942        48936
    17.23300        48933        48932        48944        48941        48937
    17.25000        48932        48934        48938        48944        48940
    17.26700        48946        48937        48936        48938        48940
    17.28300        48937        48941        48944        48942        48942
    17.30000        48936        48945        48950        48942        48949
    17.31700        48952        48945        48945        48946        48948
    17.33300        48942        48944        48945        48952        48945
    17.35000        48942        48950        48952        48948        48941
    17.36700        48953        48950        48956        48944        48957
    17.38300        48953        48956        48953        48952        48956
    17.40000        48956        48958        48966        48961        48962
    17.41700        48970        48956        48965        48962        48956
    17.43300        48965        48966        48972        48970        48960
    17.45000        48965        48978        48969        48965        48958
    17.46700        48964        48977        48962        48957        48966
    17.48300        48960        48973        48965        48966        48966
    17.50000        48960        48966        48962        48961        48972
    17.51700        48958        48966        48953        48962        48960
    17.53300        48960        48958        48958        48956        48957
    17.55000        48961        48957        48942        48954        48957
    17.56700        48940        48946        48950        48942        48936
    17.58300        48937        48932        48938        48937        48938
    17.60000        48938        48941        48940        48940        48942
    17.61700        48940        48937        48941        48938        48928
    17.63300        48934        48934        48940        48934        48934
    17.65000        48941        48932        48934        48937        48936
    17.66700        48936        48940        48936        48928        48933
    17.68300        48933        48932        48938        48936        48940
    17.70000        48942        48941        48937        48925        48934
    17.71700        48938        48938        48938        48929        48940
    17.73300        48942        48944        48945        48938        48946
    17.75000        48944        48949        48941        48949        48937
    17.76700        48944        48944        48954        48944        48944
    17.78300        48949        48944        48949        48956        48965
    17.80000        48961        48962        48956        48958        48964
    17.81700        48976        48961        48972        48981        48973
    17.83300        48978        48980        48978        48974        48982
    17.85000        48985        48986        48990        48988        49001
    17.86700        48994        48990        48989        48993        49000
    17.88300        48998        49002        49000        49006        48993
    17.90000        48998        48992        49002        49000        48996
    17.91700        48998        49005        49004        49006        49001
    17.93300        49001        48994        49006        49001        48998
    17.95000        49008        48997        49005        48996        48997
    17.96700        48998        49002        48996        48986        48996
    17.98300        48992        48986        48989        48992        48985
    18.00000        48986        48986        48981        48989        48990
    18.01700        48986        48992        48986        48990        48982
    18.03300        48982        48997        48977        48982        48981
    18.05000        48986        48980        48988        48984        48978
    18.06700        48981        48981        48986        48978        48992
    18.08300        48976        48986        48981        48986        48990
    18.10000        48981        48980        48986        48992        48980
    18.11700        48981        48994        48969        48981        48990
    18.13300        48984        48980        48980        48986        48986
    18.15000        48986        48974        48985        48982        48989
    18.16700        48984        48984        48980        48994        48984
    18.18300        48986        48986        48972        48992        48980
    18.20000        48984        48989        48977        48988        48980
    18.21700        48985        48981        48997        48993        48989
    18.23300        48996        48984        48993        48996        48996
    18.25000        48992        48992        48989        48985        48992
    18.26700        48989        48990        48981        48998        48981
    18.28300        48980        48981        48996        48981        48982
    18.30000        48989        48988        48982        48996        49001
    18.31700        48989        48989        48981        48980        48978
    18.33300        48980        48982        48981        48980        48980
    18.35000        48980        48977        48978        48966        48973
    18.36700        48977        48978        48970        48969        48978
    18.38300        48972        48981        48974        48972        48980
    18.40000        48973        48974        48966        48973        48968
    18.41700        48964        48970        48958        48961        48964
    18.43300        48957        48957        48965        48961        48960
    18.45000        48968        48954        48962        48957        48954
    18.46700        48949        48954        48942        48948        48949
    18.48300        48949        48948        48941        48948        48946
    18.50000        48944        48953        48945        48945        48950
    18.51700        48944        48941        48942        48940        48946
    18.53300        48946        48941        48940        48930        48941
    18.55000        48940        48930        48930        48928        48936
    18.56700        48921        48932        48925        48928        48917
    18.58300        48928        48928        48934        48928        48922
    18.60000        48928        48925        48926        48930        48941
    18.61700        48926        48933        48924        48925        48926
    18.63300        48934        48926        48929        48926        48932
    18.65000        48936        48934        48934        48934        48937
    18.66700        48937        48937        48926        48938        48934
    18.68300        48941        48948        48952        48945        48954
    18.70000        48952        48961        48956        48965        48965
    18.71700        48964        48977        48973        48980        48981
    18.73300        48978        48994        49001        48990        49002
    18.75000        49006        49028        49021        49010        49010
    18.76700        49022        49026        49029        49033        49025
    18.78300        49038        49036        49042        49046        49041
    18.80000        49048        49040        49053        49056        49054
    18.81700        49053        49054        49050        49049        49056
    18.83300        49050        49054        49044        49053        49056
    18.85000        49056        49044        49042        49045        49049
    18.86700        49044        49040        49032        49041        49036
    18.88300        49038        49037        49038        49028        49033
    18.90000        49025        49029        49032        49025        49017
    18.91700        49020        49010        49017        49018        49017
    18.93300        49009        49006        49009        48998        49008
    18.95000        49006        49002        49001        48989        48997
    18.96700        48998        48982        48994        48982        48992
    18.98300        48986        48981        48981        48980        48978
    19.00000        48977        48972        48976        48973        48978
    19.01700        48969        48974        48982        48977        48980
    19.03300        48982        48977        48985        48994        48993
    19.05000        48993        49018        49010        49025        49044
    19.06700        49054        49072        49090        49103        49130
    19.08300        49154        49181        49207        49231        49269
    19.10000        49306        49357        49387        49437        49485
    19.11700        49534        49577        49634        49693        49750
    19.13300        49801        49854        49917        49969        50037
    19.15000        50082        50149        50222        50273        50329
    19.16700        50375        50437        50489        50525        50579
    19.18300        50621        50649        50699        50742        50775
    19.20000        50810        50839        50873        50905        50914
    19.21700        50955        50975        50981        50995        51006
    19.23300        51019        51034        51039        51021        51031
    19.25000        51025        51029        51002        51003        50989
    19.26700        50989        50958        50953        50934        50910
    19.28300        50910        50885        50857        50847        50825
    19.30000        50793        50765        50742        50713        50686
    19.31700        50659        50641        50613        50582        50550
    19.33300        50521        50485        50466        50422        50402
    19.35000        50389        50347        50321        50297        50263
    19.36700        50239        50197        50177        50151        50125
    19.38300        50099        50077        50051        50031        50002
    19.40000        49973        49953        49926        49898        49883
    19.41700        49850        49825        49814        49787        49755
    19.43300        49738        49719        49701        49681        49669
    19.45000        49649        49629        49610        49603        49579
    19.46700        49555        49542        49529        49510        49502
    19.48300        49485        49466        49454        49442        49423
    19.50000        49410        49403        49381        49370        49358
    19.51700        49354        49338        49337        49305        49309
    19.53300        49294        49293        49275        49275        49262
    19.55000        49255        49251        49227        49217        49223
    19.56700        49199        49199        49190        49182        49174
    19.58300        49175        49170        49153        49141        49153
    19.60000        49145        49141        49133        49133        49119
    19.61700        49125        49114        49115        49111        49103
    19.63300        49094        49091        49094        49094        49087
    19.65000        49076        49069        49069        49062        49058
    19.66700        49066        49062        49052        49061        49046
    19.68300        49041        49054        49040        49048        49038
    19.70000        49037        49038        49038        49028        49030
    19.71700        49024        49024        49024        49026        49012
    19.73300        49017        49024        49012        49012        49004
    19.75000        49022        49009        49013        49014        49014
    19.76700        49014        49008        49001        49001        49008
    19.78300        49002        49005        49006        49008        49004
    19.80000        48998        49000        49002        48996        48997
    19.81700        48982        48982        48994        48977        48984
    19.83300        48981        48980        48977        48981        48981
    19.85000        48980        48980        48981        48985        48973
    19.86700        48980        48981        48978        48980        48973
    19.88300        48966        48978        48985        48980        48977
    19.90000        48980        48977        48980        48982        48969
    19.91700        48968        48970        48973        48966        48973
    19.93300        48962        48970        48964        48965        48970
    19.95000        48969        48965        48973        48954        48961
    19.96700        48965        48969        48965        48964        48954
    19.98300        48954        48962        48956        48958        48960
    19.99700        48960        48958
##END= 
