##TITLE= Headspace from passionfruit
##JCAMP-DX= 4.24
##DATA TYPE= GAS CHROMATOGRAPH
##$ASDF TYPE= FIX
##ORIGIN= HP 5890 GC TABULATED file
##OWNER= Dept of Chem, UWI, Mona, JAMAICA
##DATE= 11-26-1995
##TIME= 08:51:28
##NPOINTS=   6003
##XUNITS= TIME
##YUNITS= ARBITRARY
##FIRSTX=      0.00000
##LASTX=     20.00700
##XFACTOR= 1.0
##YFACTOR= 1.0
##FIRSTY=      48604
##MAXY=      95890
##MINY=      48112
##XYDATA= (X++(Y..Y))
     0.00000        48604        48610        48602        48609        48614
     0.01700        48604        48618        48609        48616        48608
     0.03300        48605        48602        48604        48601        48602
     0.05000        48605        48605        48604        48614        48610
     0.06700        48601        48609        48606        48604        48605
     0.08300        48614        48600        48605        48613        48614
     0.10000        48612        48608        48613        48598        48594
     0.11700        48620        48608        48618        48618        48604
     0.13300        48610        48613        48612        48617        48605
     0.15000        48613        48608        48609        48617        48614
     0.16700        48618        48606        48612        48609        48610
     0.18300        48604        48608        48606        48606        48617
     0.20000        48609        48605        48605        48601        48608
     0.21700        48612        48605        48602        48612        48606
     0.23300        48605        48608        48604        48602        48605
     0.25000        48613        48604        48598        48589        48601
     0.26700        48604        48597        48594        48598        48598
     0.28300        48604        48601        48596        48604        48589
     0.30000        48584        48582        48593        48601        48588
     0.31700        48594        48601        48592        48597        48594
     0.33300        48593        48608        48600        48601        48597
     0.35000        48602        48608        48593        48604        48600
     0.36700        48592        48592        48602        48605        48601
     0.38300        48601        48600        48602        48597        48601
     0.40000        48601        48586        48597        48597        48598
     0.41700        48598        48600        48590        48597        48598
     0.43300        48602        48594        48602        48598        48608
     0.45000        48605        48608        48608        48604        48608
     0.46700        48602        48592        48596        48601        48596
     0.48300        48596        48612        48614        48600        48600
     0.50000        48605        48602        48602        48600        48605
     0.51700        48609        48606        48602        48606        48602
     0.53300        48596        48598        48596        48601        48598
     0.55000        48600        48606        48608        48605        48608
     0.56700        48621        48609        48602        48601        48609
     0.58300        48606        48605        48601        48598        48600
     0.60000        48602        48597        48601        48596        48602
     0.61700        48602        48601        48593        48601        48604
     0.63300        48601        48604        48594        48597        48601
     0.65000        48608        48602        48608        48601        48608
     0.66700        48600        48606        48604        48598        48598
     0.68300        48606        48601        48605        48593        48601
     0.70000        48605        48600        48598        48602        48593
     0.71700        48606        48605        48597        48594        48604
     0.73300        48602        48608        48597        48597        48592
     0.75000        48588        48594        48597        48590        48602
     0.76700        48604        48597        48602        48608        48597
     0.78300        48602        48606        48604        48605        48601
     0.80000        48605        48601        48598        48612        48604
     0.81700        48602        48600        48596        48614        48600
     0.83300        48613        48602        48606        48608        48606
     0.85000        48601        48604        48609        48608        48606
     0.86700        48609        48624        48618        48613        48616
     0.88300        48620        48621        48625        48610        48622
     0.90000        48616        48617        48626        48625        48625
     0.91700        48625        48618        48634        48630        48628
     0.93300        48625        48625        48633        48634        48629
     0.95000        48633        48640        48630        48629        48632
     0.96700        48634        48628        48633        48638        48648
     0.98300        48640        48640        48640        48644        48646
     1.00000        48630        48640        48633        48640        48634
     1.01700        48645        48646        48626        48652        48654
     1.03300        48646        48642        48642        48645        48642
     1.05000        48645        48648        48646        48641        48648
     1.06700        48644        48640        48646        48642        48641
     1.08300        48649        48644        48642        48648        48642
     1.10000        48640        48645        48653        48636        48638
     1.11700        48634        48636        48641        48640        48633
     1.13300        48637        48634        48640        48630        48630
     1.15000        48636        48630        48634        48632        48634
     1.16700        48625        48625        48628        48625        48628
     1.18300        48628        48629        48620        48628        48621
     1.20000        48618        48636        48618        48622        48626
     1.21700        48621        48624        48625        48621        48624
     1.23300        48624        48630        48625        48625        48634
     1.25000        48628        48624        48625        48633        48628
     1.26700        48620        48632        48621        48622        48614
     1.28300        48620        48626        48616        48625        48618
     1.30000        48616        48614        48621        48612        48621
     1.31700        48616        48621        48633        48618        48630
     1.33300        48626        48614        48624        48622        48633
     1.35000        48636        48632        48632        48633        48654
     1.36700        48661        48656        48681        48694        48734
     1.38300        48760        48828        48890        49004        49149
     1.40000        49361        49655        50067        50614        51314
     1.41700        52178        53223        54514        55975        57677
     1.43300        59523        61568        63769        66015        68459
     1.45000        70847        73233        75749        77969        80321
     1.46700        82410        84432        86337        88009        89609
     1.48300        90960        92154        93195        94085        94809
     1.50000        95370        95762        95890        95777        95769
     1.51700        95833        95686        95393        95021        94566
     1.53300        94082        93489        92889        92216        91494
     1.55000        90713        89908        89090        88256        87411
     1.56700        86499        85609        84743        83886        83036
     1.58300        82151        81281        80457        79642        78895
     1.60000        78183        77409        76661        76010        75324
     1.61700        74710        74135        73605        73084        72472
     1.63300        71964        71475        70961        70523        70056
     1.65000        69612        69138        68675        68248        67827
     1.66700        67383        66921        66513        66118        65703
     1.68300        65313        64926        64491        64090        63711
     1.70000        63314        62930        62593        62220        61862
     1.71700        61533        61188        60866        60566        60268
     1.73300        59983        59723        59472        59199        58987
     1.75000        58767        58552        58363        58167        57984
     1.76700        57833        57656        57495        57339        57179
     1.78300        57031        56880        56739        56589        56451
     1.80000        56286        56150        56012        55875        55742
     1.81700        55594        55452        55312        55174        55034
     1.83300        54896        54754        54624        54486        54351
     1.85000        54228        54096        53970        53854        53724
     1.86700        53606        53486        53363        53250        53138
     1.88300        53026        52924        52819        52706        52602
     1.90000        52501        52401        52311        52210        52113
     1.91700        52033        51942        51862        51777        51682
     1.93300        51625        51542        51457        51387        51319
     1.95000        51238        51177        51113        51047        50982
     1.96700        50937        50877        50822        50766        50721
     1.98300        50675        50619        50575        50530        50491
     2.00000        50443        50406        50366        50331        50289
     2.01700        50245        50217        50189        50165        50130
     2.03300        50086        50054        50025        49990        49965
     2.05000        49933        49911        49879        49855        49827
     2.06700        49806        49785        49763        49735        49714
     2.08300        49694        49677        49654        49627        49595
     2.10000        49579        49566        49561        49538        49505
     2.11700        49494        49474        49461        49438        49422
     2.13300        49409        49399        49378        49366        49359
     2.15000        49343        49322        49313        49298        49286
     2.16700        49278        49254        49254        49247        49231
     2.18300        49217        49211        49197        49202        49185
     2.20000        49177        49170        49165        49163        49146
     2.21700        49145        49127        49131        49110        49102
     2.23300        49099        49097        49091        49087        49093
     2.25000        49089        49081        49066        49077        49072
     2.26700        49065        49060        49052        49022        48985
     2.28300        48946        48898        48841        48788        48741
     2.30000        48705        48694        48682        48669        48657
     2.31700        48662        48656        48601        48532        48505
     2.33300        48504        48496        48501        48518        48522
     2.35000        48540        48564        48584        48626        48665
     2.36700        48708        48757        48824        48886        48942
     2.38300        49034        49113        49198        49287        49371
     2.40000        49462        49549        49630        49722        49803
     2.41700        49881        49954        50027        50087        50138
     2.43300        50189        50242        50287        50315        50350
     2.45000        50374        50398        50405        50415        50414
     2.46700        50421        50421        50405        50385        50374
     2.48300        50346        50334        50306        50267        50229
     2.50000        50198        50162        50122        50091        50046
     2.51700        50018        49967        49930        49886        49843
     2.53300        49802        49755        49721        49675        49627
     2.55000        49591        49546        49510        49473        49442
     2.56700        49398        49358        49322        49298        49258
     2.58300        49222        49190        49153        49130        49095
     2.60000        49064        49033        49009        48977        48952
     2.61700        48924        48904        48890        48858        48840
     2.63300        48821        48792        48774        48754        48736
     2.65000        48713        48700        48689        48668        48649
     2.66700        48637        48624        48613        48602        48588
     2.68300        48578        48562        48548        48544        48538
     2.70000        48513        48514        48510        48508        48494
     2.71700        48488        48480        48464        48470        48466
     2.73300        48446        48453        48442        48437        48440
     2.75000        48430        48428        48417        48418        48417
     2.76700        48412        48409        48409        48404        48405
     2.78300        48396        48384        48392        48382        48377
     2.80000        48374        48372        48377        48384        48381
     2.81700        48357        48373        48362        48372        48373
     2.83300        48357        48361        48369        48357        48360
     2.85000        48362        48353        48356        48354        48350
     2.86700        48354        48349        48344        48345        48356
     2.88300        48346        48342        48350        48350        48344
     2.90000        48353        48344        48362        48354        48348
     2.91700        48368        48358        48356        48358        48362
     2.93300        48366        48362        48374        48382        48385
     2.95000        48382        48388        48389        48389        48394
     2.96700        48393        48397        48396        48398        48390
     2.98300        48397        48402        48400        48396        48410
     3.00000        48410        48406        48408        48402        48410
     3.01700        48404        48405        48416        48397        48412
     3.03300        48406        48401        48409        48400        48402
     3.05000        48400        48388        48396        48396        48397
     3.06700        48392        48378        48377        48388        48381
     3.08300        48385        48380        48384        48370        48369
     3.10000        48381        48370        48370        48369        48357
     3.11700        48373        48373        48376        48368        48369
     3.13300        48378        48378        48381        48377        48396
     3.15000        48392        48381        48385        48400        48400
     3.16700        48400        48393        48396        48409        48401
     3.18300        48402        48408        48412        48418        48418
     3.20000        48424        48421        48422        48429        48430
     3.21700        48437        48434        48437        48437        48437
     3.23300        48429        48434        48432        48438        48441
     3.25000        48449        48450        48446        48452        48450
     3.26700        48450        48450        48452        48448        48450
     3.28300        48444        48450        48440        48436        48444
     3.30000        48432        48434        48432        48429        48422
     3.31700        48420        48429        48424        48417        48402
     3.33300        48413        48405        48401        48394        48393
     3.35000        48386        48392        48393        48393        48389
     3.36700        48378        48384        48369        48376        48365
     3.38300        48368        48366        48360        48357        48350
     3.40000        48354        48356        48345        48345        48341
     3.41700        48337        48336        48330        48337        48337
     3.43300        48330        48325        48328        48332        48329
     3.45000        48322        48318        48316        48332        48321
     3.46700        48326        48330        48324        48330        48326
     3.48300        48321        48326        48318        48322        48332
     3.50000        48328        48317        48322        48326        48316
     3.51700        48309        48314        48317        48317        48325
     3.53300        48317        48321        48321        48320        48316
     3.55000        48317        48316        48313        48324        48325
     3.56700        48326        48316        48310        48317        48312
     3.58300        48313        48324        48312        48314        48313
     3.60000        48318        48313        48318        48326        48321
     3.61700        48320        48337        48330        48320        48330
     3.63300        48322        48322        48333        48332        48330
     3.65000        48328        48329        48330        48324        48325
     3.66700        48324        48321        48324        48324        48328
     3.68300        48329        48322        48325        48329        48322
     3.70000        48326        48313        48314        48314        48324
     3.71700        48314        48320        48309        48304        48314
     3.73300        48313        48317        48298        48300        48312
     3.75000        48305        48302        48297        48292        48301
     3.76700        48300        48296        48296        48293        48286
     3.78300        48297        48298        48298        48298        48294
     3.80000        48301        48300        48285        48292        48292
     3.81700        48292        48292        48304        48289        48293
     3.83300        48284        48294        48288        48290        48296
     3.85000        48301        48297        48289        48288        48301
     3.86700        48304        48297        48309        48310        48314
     3.88300        48312        48302        48306        48313        48328
     3.90000        48306        48317        48321        48321        48317
     3.91700        48326        48324        48333        48336        48336
     3.93300        48338        48337        48345        48348        48356
     3.95000        48356        48358        48369        48373        48377
     3.96700        48381        48378        48384        48385        48396
     3.98300        48398        48405        48408        48412        48414
     4.00000        48424        48434        48429        48437        48440
     4.01700        48444        48452        48448        48461        48460
     4.03300        48477        48476        48474        48481        48474
     4.05000        48486        48488        48493        48500        48492
     4.06700        48502        48501        48501        48505        48494
     4.08300        48502        48505        48509        48506        48520
     4.10000        48505        48508        48510        48514        48510
     4.11700        48518        48518        48514        48514        48520
     4.13300        48512        48512        48513        48520        48514
     4.15000        48513        48508        48496        48494        48506
     4.16700        48500        48498        48498        48500        48506
     4.18300        48489        48498        48496        48501        48490
     4.20000        48472        48477        48485        48481        48477
     4.21700        48472        48477        48480        48466        48469
     4.23300        48465        48461        48462        48456        48452
     4.25000        48450        48453        48452        48442        48441
     4.26700        48437        48438        48442        48433        48436
     4.28300        48432        48425        48433        48434        48418
     4.30000        48432        48425        48421        48418        48417
     4.31700        48418        48420        48420        48424        48422
     4.33300        48414        48416        48428        48412        48409
     4.35000        48408        48412        48416        48425        48406
     4.36700        48416        48421        48414        48409        48408
     4.38300        48406        48412        48408        48406        48406
     4.40000        48402        48409        48394        48392        48388
     4.41700        48390        48381        48385        48386        48388
     4.43300        48381        48376        48382        48380        48370
     4.45000        48373        48364        48376        48369        48369
     4.46700        48366        48368        48356        48361        48352
     4.48300        48349        48349        48361        48354        48346
     4.50000        48348        48345        48341        48341        48345
     4.51700        48341        48352        48337        48337        48338
     4.53300        48336        48344        48333        48338        48333
     4.55000        48337        48337        48333        48333        48334
     4.56700        48333        48328        48321        48329        48320
     4.58300        48326        48334        48313        48318        48318
     4.60000        48325        48318        48320        48320        48318
     4.61700        48320        48314        48314        48316        48322
     4.63300        48320        48314        48316        48324        48326
     4.65000        48314        48317        48321        48320        48321
     4.66700        48324        48318        48317        48320        48316
     4.68300        48322        48330        48317        48321        48320
     4.70000        48326        48328        48328        48321        48318
     4.71700        48328        48322        48316        48318        48322
     4.73300        48326        48328        48326        48334        48336
     4.75000        48326        48329        48334        48337        48333
     4.76700        48328        48344        48330        48333        48330
     4.78300        48328        48341        48330        48336        48341
     4.80000        48337        48342        48334        48332        48344
     4.81700        48340        48337        48340        48346        48333
     4.83300        48338        48342        48342        48346        48344
     4.85000        48334        48340        48341        48337        48341
     4.86700        48330        48330        48330        48337        48334
     4.88300        48330        48330        48332        48334        48336
     4.90000        48337        48329        48333        48325        48328
     4.91700        48330        48326        48328        48324        48326
     4.93300        48320        48328        48322        48320        48330
     4.95000        48324        48322        48316        48320        48325
     4.96700        48325        48325        48325        48313        48328
     4.98300        48318        48324        48320        48317        48321
     5.00000        48325        48320        48312        48308        48321
     5.01700        48321        48320        48313        48318        48321
     5.03300        48324        48317        48320        48313        48322
     5.05000        48316        48317        48310        48316        48318
     5.06700        48324        48321        48314        48320        48310
     5.08300        48312        48320        48324        48301        48322
     5.10000        48308        48318        48316        48318        48309
     5.11700        48313        48312        48305        48304        48313
     5.13300        48310        48305        48312        48304        48316
     5.15000        48305        48297        48304        48309        48304
     5.16700        48313        48302        48308        48304        48304
     5.18300        48305        48297        48300        48305        48302
     5.20000        48305        48302        48286        48297        48298
     5.21700        48289        48296        48286        48282        48286
     5.23300        48282        48288        48293        48274        48282
     5.25000        48278        48286        48288        48289        48286
     5.26700        48281        48281        48288        48277        48281
     5.28300        48282        48286        48281        48274        48288
     5.30000        48288        48292        48282        48284        48288
     5.31700        48293        48280        48286        48293        48278
     5.33300        48296        48281        48285        48294        48276
     5.35000        48290        48281        48290        48288        48292
     5.36700        48289        48288        48292        48296        48292
     5.38300        48288        48294        48305        48296        48300
     5.40000        48300        48302        48305        48320        48304
     5.41700        48296        48296        48293        48302        48297
     5.43300        48308        48312        48318        48314        48320
     5.45000        48326        48324        48320        48326        48326
     5.46700        48330        48338        48336        48328        48336
     5.48300        48324        48330        48337        48330        48337
     5.50000        48329        48338        48341        48337        48330
     5.51700        48342        48334        48330        48325        48332
     5.53300        48334        48334        48318        48317        48325
     5.55000        48320        48318        48322        48314        48313
     5.56700        48314        48312        48316        48312        48312
     5.58300        48305        48308        48301        48309        48310
     5.60000        48301        48309        48294        48300        48301
     5.61700        48304        48293        48288        48300        48297
     5.63300        48285        48301        48292        48285        48298
     5.65000        48284        48288        48274        48281        48281
     5.66700        48281        48282        48276        48288        48273
     5.68300        48280        48265        48277        48274        48273
     5.70000        48273        48273        48273        48277        48276
     5.71700        48280        48265        48273        48272        48278
     5.73300        48284        48274        48265        48282        48280
     5.75000        48278        48280        48288        48293        48285
     5.76700        48289        48296        48302        48309        48308
     5.78300        48313        48325        48329        48346        48356
     5.80000        48358        48377        48388        48389        48416
     5.81700        48425        48444        48460        48469        48493
     5.83300        48513        48533        48532        48566        48566
     5.85000        48584        48606        48621        48629        48638
     5.86700        48658        48660        48689        48680        48685
     5.88300        48693        48701        48712        48718        48709
     5.90000        48724        48724        48722        48725        48717
     5.91700        48709        48705        48702        48698        48690
     5.93300        48702        48693        48688        48682        48657
     5.95000        48656        48649        48650        48632        48622
     5.96700        48616        48604        48589        48589        48574
     5.98300        48574        48557        48552        48541        48528
     6.00000        48520        48522        48508        48502        48485
     6.01700        48485        48481        48469        48461        48454
     6.03300        48457        48442        48442        48437        48430
     6.05000        48422        48421        48412        48402        48406
     6.06700        48396        48397        48398        48405        48406
     6.08300        48404        48417        48428        48433        48449
     6.10000        48464        48497        48521        48556        48592
     6.11700        48636        48682        48742        48794        48865
     6.13300        48937        49010        49091        49185        49273
     6.15000        49367        49449        49538        49641        49735
     6.16700        49825        49915        49998        50078        50171
     6.18300        50233        50297        50359        50421        50471
     6.20000        50517        50566        50591        50610        50635
     6.21700        50654        50674        50667        50653        50661
     6.23300        50654        50645        50618        50590        50574
     6.25000        50525        50493        50455        50411        50375
     6.26700        50339        50283        50243        50201        50171
     6.28300        50111        50069        50021        49971        49930
     6.30000        49889        49835        49799        49741        49709
     6.31700        49657        49623        49577        49526        49485
     6.33300        49451        49402        49365        49325        49282
     6.35000        49250        49205        49179        49145        49114
     6.36700        49073        49046        49029        49000        48973
     6.38300        48954        48916        48898        48886        48853
     6.40000        48836        48817        48793        48781        48766
     6.41700        48742        48738        48722        48697        48688
     6.43300        48677        48658        48656        48633        48636
     6.45000        48620        48613        48605        48589        48578
     6.46700        48573        48577        48572        48556        48550
     6.48300        48541        48541        48536        48532        48524
     6.50000        48513        48510        48520        48508        48517
     6.51700        48513        48505        48505        48506        48496
     6.53300        48490        48502        48492        48492        48493
     6.55000        48492        48490        48484        48484        48481
     6.56700        48478        48480        48477        48480        48481
     6.58300        48484        48482        48478        48477        48470
     6.60000        48473        48468        48474        48469        48462
     6.61700        48462        48468        48462        48465        48466
     6.63300        48454        48457        48458        48456        48460
     6.65000        48454        48457        48462        48453        48453
     6.66700        48454        48453        48445        48442        48438
     6.68300        48441        48440        48446        48442        48449
     6.70000        48436        48436        48434        48448        48440
     6.71700        48434        48430        48438        48432        48426
     6.73300        48433        48426        48430        48434        48432
     6.75000        48428        48429        48428        48425        48422
     6.76700        48425        48424        48410        48425        48416
     6.78300        48418        48424        48410        48418        48405
     6.80000        48401        48413        48405        48410        48405
     6.81700        48409        48400        48396        48390        48398
     6.83300        48394        48390        48392        48386        48396
     6.85000        48384        48376        48369        48384        48362
     6.86700        48369        48364        48366        48368        48370
     6.88300        48358        48356        48356        48356        48354
     6.90000        48356        48348        48342        48336        48340
     6.91700        48340        48332        48334        48337        48316
     6.93300        48321        48322        48320        48325        48310
     6.95000        48314        48332        48312        48312        48304
     6.96700        48310        48302        48304        48296        48293
     6.98300        48297        48289        48297        48296        48292
     7.00000        48284        48294        48290        48282        48281
     7.01700        48288        48277        48277        48274        48285
     7.03300        48273        48280        48278        48270        48277
     7.05000        48281        48274        48272        48273        48272
     7.06700        48281        48278        48282        48278        48269
     7.08300        48277        48269        48269        48269        48268
     7.10000        48281        48266        48277        48277        48288
     7.11700        48278        48289        48297        48288        48288
     7.13300        48289        48292        48293        48288        48296
     7.15000        48300        48300        48292        48293        48294
     7.16700        48298        48296        48290        48285        48284
     7.18300        48284        48294        48292        48293        48293
     7.20000        48293        48296        48288        48290        48294
     7.21700        48302        48304        48305        48302        48301
     7.23300        48301        48304        48305        48316        48310
     7.25000        48309        48312        48321        48322        48328
     7.26700        48337        48336        48336        48338        48356
     7.28300        48356        48361        48372        48378        48388
     7.30000        48392        48397        48409        48410        48442
     7.31700        48436        48440        48446        48450        48469
     7.33300        48469        48481        48482        48490        48500
     7.35000        48502        48502        48520        48513        48510
     7.36700        48530        48520        48525        48536        48544
     7.38300        48544        48549        48545        48561        48557
     7.40000        48564        48569        48566        48573        48584
     7.41700        48589        48596        48592        48608        48614
     7.43300        48622        48630        48637        48632        48644
     7.45000        48645        48648        48657        48661        48652
     7.46700        48661        48668        48658        48650        48662
     7.48300        48658        48656        48654        48654        48648
     7.50000        48645        48645        48634        48637        48629
     7.51700        48626        48624        48609        48612        48604
     7.53300        48601        48592        48578        48593        48582
     7.55000        48570        48570        48558        48554        48548
     7.56700        48537        48548        48534        48529        48526
     7.58300        48514        48505        48502        48498        48488
     7.60000        48481        48470        48465        48462        48460
     7.61700        48458        48457        48453        48440        48441
     7.63300        48429        48441        48432        48438        48432
     7.65000        48413        48412        48412        48414        48401
     7.66700        48398        48406        48398        48404        48397
     7.68300        48392        48389        48394        48382        48393
     7.70000        48385        48382        48372        48381        48385
     7.71700        48373        48374        48384        48380        48372
     7.73300        48377        48374        48376        48372        48361
     7.75000        48373        48377        48374        48373        48362
     7.76700        48373        48373        48362        48360        48357
     7.78300        48361        48361        48370        48361        48370
     7.80000        48358        48354        48357        48356        48357
     7.81700        48353        48349        48353        48350        48346
     7.83300        48341        48340        48341        48350        48344
     7.85000        48333        48330        48329        48332        48332
     7.86700        48334        48324        48322        48320        48314
     7.88300        48320        48304        48314        48316        48304
     7.90000        48306        48297        48298        48297        48294
     7.91700        48292        48286        48284        48276        48277
     7.93300        48282        48278        48285        48268        48277
     7.95000        48281        48266        48270        48268        48269
     7.96700        48276        48264        48265        48270        48266
     7.98300        48274        48265        48269        48257        48260
     8.00000        48261        48261        48257        48256        48268
     8.01700        48256        48258        48260        48264        48262
     8.03300        48264        48265        48261        48260        48260
     8.05000        48268        48273        48266        48273        48266
     8.06700        48264        48262        48265        48262        48269
     8.08300        48262        48269        48272        48264        48270
     8.10000        48268        48262        48276        48269        48280
     8.11700        48268        48272        48261        48274        48268
     8.13300        48269        48268        48265        48270        48272
     8.15000        48269        48270        48270        48274        48266
     8.16700        48270        48274        48269        48261        48272
     8.18300        48269        48282        48280        48281        48281
     8.20000        48288        48292        48296        48290        48302
     8.21700        48314        48326        48321        48324        48341
     8.23300        48348        48348        48369        48380        48392
     8.25000        48398        48418        48422        48433        48452
     8.26700        48465        48486        48486        48502        48520
     8.28300        48520        48540        48552        48572        48580
     8.30000        48590        48609        48625        48629        48640
     8.31700        48637        48654        48657        48656        48674
     8.33300        48674        48665        48673        48672        48665
     8.35000        48666        48668        48665        48653        48653
     8.36700        48632        48637        48622        48616        48614
     8.38300        48618        48613        48594        48590        48586
     8.40000        48566        48562        48552        48550        48544
     8.41700        48541        48533        48513        48506        48498
     8.43300        48498        48481        48474        48464        48456
     8.45000        48452        48433        48429        48422        48418
     8.46700        48414        48410        48404        48389        48384
     8.48300        48376        48378        48374        48372        48356
     8.50000        48356        48344        48346        48344        48344
     8.51700        48328        48333        48322        48326        48322
     8.53300        48316        48316        48317        48304        48310
     8.55000        48301        48294        48296        48301        48297
     8.56700        48290        48298        48292        48298        48278
     8.58300        48294        48281        48282        48274        48281
     8.60000        48278        48280        48273        48276        48281
     8.61700        48272        48274        48264        48264        48268
     8.63300        48265        48268        48261        48257        48270
     8.65000        48264        48264        48257        48264        48268
     8.66700        48257        48261        48258        48257        48257
     8.68300        48260        48273        48261        48265        48260
     8.70000        48260        48262        48277        48269        48257
     8.71700        48272        48264        48265        48266        48268
     8.73300        48269        48268        48278        48269        48280
     8.75000        48278        48281        48286        48298        48300
     8.76700        48305        48298        48300        48312        48312
     8.78300        48320        48329        48324        48333        48324
     8.80000        48338        48334        48340        48337        48338
     8.81700        48340        48341        48342        48357        48352
     8.83300        48357        48354        48358        48354        48354
     8.85000        48356        48357        48361        48358        48348
     8.86700        48354        48337        48354        48350        48344
     8.88300        48345        48338        48344        48333        48345
     8.90000        48340        48329        48326        48318        48321
     8.91700        48328        48322        48325        48316        48318
     8.93300        48316        48314        48317        48300        48300
     8.95000        48297        48297        48296        48292        48284
     8.96700        48288        48289        48281        48282        48281
     8.98300        48284        48277        48277        48273        48270
     9.00000        48270        48262        48266        48265        48260
     9.01700        48266        48261        48253        48254        48260
     9.03300        48264        48260        48258        48253        48257
     9.05000        48252        48249        48248        48253        48252
     9.06700        48252        48248        48269        48252        48244
     9.08300        48253        48253        48249        48242        48253
     9.10000        48248        48249        48245        48245        48246
     9.11700        48244        48248        48238        48233        48238
     9.13300        48241        48241        48241        48237        48228
     9.15000        48244        48236        48240        48236        48236
     9.16700        48238        48236        48237        48229        48228
     9.18300        48234        48236        48234        48232        48240
     9.20000        48234        48229        48240        48240        48226
     9.21700        48226        48234        48234        48241        48229
     9.23300        48237        48236        48236        48233        48233
     9.25000        48234        48238        48232        48237        48229
     9.26700        48237        48242        48237        48242        48248
     9.28300        48245        48241        48253        48242        48244
     9.30000        48245        48249        48246        48264        48240
     9.31700        48245        48248        48256        48252        48257
     9.33300        48253        48257        48268        48257        48265
     9.35000        48266        48257        48257        48270        48258
     9.36700        48257        48264        48269        48268        48273
     9.38300        48264        48273        48268        48272        48273
     9.40000        48264        48270        48273        48280        48277
     9.41700        48273        48269        48278        48280        48278
     9.43300        48280        48273        48282        48276        48278
     9.45000        48274        48281        48272        48272        48276
     9.46700        48273        48281        48282        48280        48278
     9.48300        48273        48284        48282        48281        48280
     9.50000        48278        48281        48284        48280        48286
     9.51700        48288        48286        48281        48290        48286
     9.53300        48285        48294        48294        48294        48293
     9.55000        48290        48290        48293        48302        48293
     9.56700        48293        48302        48306        48294        48301
     9.58300        48304        48289        48301        48300        48306
     9.60000        48302        48298        48308        48310        48308
     9.61700        48304        48301        48310        48306        48309
     9.63300        48314        48318        48309        48314        48318
     9.65000        48320        48310        48301        48317        48308
     9.66700        48316        48310        48328        48320        48316
     9.68300        48314        48320        48314        48316        48318
     9.70000        48312        48328        48316        48317        48329
     9.71700        48325        48321        48325        48333        48325
     9.73300        48325        48333        48330        48329        48332
     9.75000        48337        48333        48341        48329        48329
     9.76700        48329        48337        48344        48346        48341
     9.78300        48344        48344        48337        48341        48346
     9.80000        48346        48338        48348        48344        48353
     9.81700        48353        48354        48353        48342        48353
     9.83300        48356        48345        48349        48353        48357
     9.85000        48353        48357        48357        48354        48360
     9.86700        48364        48364        48358        48372        48374
     9.88300        48374        48370        48373        48366        48357
     9.90000        48372        48365        48372        48374        48374
     9.91700        48370        48374        48378        48377        48380
     9.93300        48376        48386        48377        48373        48380
     9.95000        48373        48382        48376        48382        48381
     9.96700        48385        48382        48384        48390        48392
     9.98300        48390        48381        48388        48385        48388
    10.00000        48393        48394        48388        48394        48390
    10.01700        48400        48389        48386        48392        48393
    10.03300        48389        48400        48404        48396        48396
    10.05000        48402        48400        48390        48400        48389
    10.06700        48400        48393        48396        48401        48402
    10.08300        48390        48397        48405        48405        48398
    10.10000        48409        48412        48401        48402        48406
    10.11700        48398        48398        48400        48404        48405
    10.13300        48402        48404        48393        48386        48405
    10.15000        48396        48402        48397        48401        48406
    10.16700        48409        48405        48401        48394        48408
    10.18300        48412        48402        48413        48410        48404
    10.20000        48412        48410        48418        48421        48413
    10.21700        48405        48408        48406        48412        48409
    10.23300        48410        48410        48414        48420        48418
    10.25000        48409        48412        48420        48414        48416
    10.26700        48410        48405        48417        48412        48416
    10.28300        48413        48418        48422        48425        48424
    10.30000        48412        48425        48417        48418        48421
    10.31700        48414        48418        48425        48424        48422
    10.33300        48426        48420        48421        48422        48414
    10.35000        48417        48426        48413        48422        48429
    10.36700        48440        48429        48426        48430        48437
    10.38300        48429        48433        48428        48440        48457
    10.40000        48444        48444        48449        48446        48452
    10.41700        48457        48456        48457        48460        48453
    10.43300        48457        48460        48464        48469        48469
    10.45000        48484        48480        48476        48474        48476
    10.46700        48477        48484        48490        48484        48480
    10.48300        48484        48478        48476        48486        48478
    10.50000        48482        48496        48492        48489        48488
    10.51700        48489        48486        48496        48485        48476
    10.53300        48489        48490        48498        48493        48489
    10.55000        48486        48482        48497        48494        48500
    10.56700        48504        48489        48496        48502        48500
    10.58300        48508        48510        48514        48520        48517
    10.60000        48532        48520        48533        48538        48549
    10.61700        48568        48554        48550        48549        48558
    10.63300        48565        48573        48574        48578        48593
    10.65000        48601        48608        48606        48610        48612
    10.66700        48626        48624        48640        48632        48638
    10.68300        48638        48649        48649        48656        48657
    10.70000        48654        48665        48668        48662        48652
    10.71700        48666        48665        48653        48653        48668
    10.73300        48661        48668        48668        48650        48650
    10.75000        48650        48653        48652        48650        48658
    10.76700        48648        48638        48641        48629        48633
    10.78300        48633        48628        48624        48621        48612
    10.80000        48612        48614        48600        48596        48606
    10.81700        48601        48593        48592        48593        48581
    10.83300        48570        48580        48570        48570        48570
    10.85000        48550        48566        48549        48556        48544
    10.86700        48544        48544        48534        48542        48534
    10.88300        48525        48530        48529        48512        48508
    10.90000        48508        48505        48506        48500        48494
    10.91700        48490        48490        48477        48488        48478
    10.93300        48469        48477        48460        48469        48473
    10.95000        48464        48454        48461        48454        48441
    10.96700        48452        48448        48441        48445        48436
    10.98300        48434        48441        48440        48436        48430
    11.00000        48425        48429        48420        48416        48420
    11.01700        48416        48416        48410        48410        48406
    11.03300        48400        48408        48392        48402        48397
    11.05000        48389        48398        48384        48378        48386
    11.06700        48376        48380        48373        48374        48370
    11.08300        48364        48373        48354        48360        48358
    11.10000        48366        48360        48360        48346        48350
    11.11700        48348        48346        48349        48346        48342
    11.13300        48338        48342        48346        48336        48337
    11.15000        48340        48336        48333        48333        48326
    11.16700        48325        48330        48328        48333        48322
    11.18300        48321        48313        48316        48326        48320
    11.20000        48316        48324        48314        48320        48317
    11.21700        48310        48314        48316        48312        48298
    11.23300        48298        48316        48301        48302        48302
    11.25000        48304        48290        48292        48294        48302
    11.26700        48300        48285        48290        48292        48294
    11.28300        48289        48281        48286        48285        48288
    11.30000        48292        48286        48280        48286        48286
    11.31700        48281        48286        48274        48277        48276
    11.33300        48278        48274        48277        48270        48276
    11.35000        48265        48266        48274        48264        48270
    11.36700        48270        48274        48273        48269        48274
    11.38300        48270        48268        48266        48265        48261
    11.40000        48262        48268        48258        48262        48261
    11.41700        48261        48266        48257        48260        48262
    11.43300        48256        48249        48252        48260        48248
    11.45000        48246        48252        48245        48254        48254
    11.46700        48248        48245        48246        48234        48252
    11.48300        48237        48245        48250        48244        48240
    11.50000        48240        48246        48245        48248        48245
    11.51700        48241        48240        48240        48238        48253
    11.53300        48234        48242        48245        48245        48234
    11.55000        48241        48237        48228        48230        48240
    11.56700        48240        48230        48240        48240        48244
    11.58300        48240        48240        48245        48241        48240
    11.60000        48245        48240        48241        48246        48252
    11.61700        48252        48258        48256        48250        48268
    11.63300        48260        48253        48270        48269        48270
    11.65000        48270        48277        48276        48281        48282
    11.66700        48290        48288        48293        48296        48297
    11.68300        48298        48301        48302        48304        48308
    11.70000        48305        48320        48318        48317        48336
    11.71700        48314        48322        48330        48322        48333
    11.73300        48324        48333        48334        48328        48333
    11.75000        48338        48334        48333        48336        48320
    11.76700        48328        48325        48333        48324        48326
    11.78300        48317        48317        48304        48314        48301
    11.80000        48297        48296        48294        48298        48290
    11.81700        48294        48290        48288        48284        48280
    11.83300        48273        48286        48278        48273        48272
    11.85000        48274        48260        48256        48254        48258
    11.86700        48261        48253        48248        48246        48253
    11.88300        48245        48250        48240        48237        48236
    11.90000        48240        48236        48232        48234        48228
    11.91700        48225        48222        48229        48226        48228
    11.93300        48220        48212        48222        48224        48217
    11.95000        48213        48214        48221        48216        48209
    11.96700        48205        48206        48196        48210        48205
    11.98300        48209        48205        48198        48213        48204
    12.00000        48198        48208        48201        48212        48198
    12.01700        48206        48206        48198        48206        48202
    12.03300        48208        48190        48198        48201        48204
    12.05000        48208        48202        48206        48210        48204
    12.06700        48196        48202        48198        48197        48204
    12.08300        48208        48201        48196        48209        48198
    12.10000        48206        48205        48208        48206        48196
    12.11700        48210        48198        48200        48202        48208
    12.13300        48208        48202        48206        48206        48213
    12.15000        48212        48209        48218        48214        48210
    12.16700        48218        48217        48213        48214        48220
    12.18300        48206        48218        48217        48222        48225
    12.20000        48222        48224        48233        48220        48220
    12.21700        48228        48213        48222        48222        48224
    12.23300        48224        48224        48233        48228        48225
    12.25000        48232        48228        48232        48233        48229
    12.26700        48234        48224        48224        48230        48230
    12.28300        48230        48237        48238        48225        48228
    12.30000        48226        48230        48225        48225        48229
    12.31700        48232        48226        48221        48228        48229
    12.33300        48224        48212        48218        48216        48209
    12.35000        48216        48218        48218        48210        48212
    12.36700        48208        48209        48214        48201        48200
    12.38300        48216        48212        48209        48208        48213
    12.40000        48208        48208        48205        48210        48204
    12.41700        48202        48205        48217        48206        48209
    12.43300        48200        48193        48196        48197        48200
    12.45000        48196        48204        48205        48192        48193
    12.46700        48197        48200        48194        48200        48188
    12.48300        48194        48192        48194        48194        48196
    12.50000        48189        48182        48186        48188        48192
    12.51700        48184        48188        48181        48189        48186
    12.53300        48182        48188        48196        48194        48196
    12.55000        48204        48193        48188        48194        48202
    12.56700        48196        48198        48196        48198        48194
    12.58300        48196        48200        48193        48196        48204
    12.60000        48202        48204        48204        48194        48200
    12.61700        48205        48200        48190        48193        48196
    12.63300        48192        48196        48188        48190        48186
    12.65000        48189        48189        48181        48200        48185
    12.66700        48186        48193        48190        48196        48193
    12.68300        48200        48178        48192        48184        48185
    12.70000        48190        48185        48189        48188        48188
    12.71700        48190        48192        48189        48193        48188
    12.73300        48197        48192        48197        48189        48193
    12.75000        48185        48184        48190        48190        48192
    12.76700        48193        48184        48201        48182        48193
    12.78300        48192        48190        48194        48196        48193
    12.80000        48193        48186        48200        48196        48193
    12.81700        48192        48196        48197        48188        48184
    12.83300        48181        48193        48192        48194        48188
    12.85000        48189        48189        48196        48206        48193
    12.86700        48192        48196        48197        48198        48192
    12.88300        48206        48204        48201        48206        48201
    12.90000        48206        48189        48196        48204        48194
    12.91700        48204        48202        48206        48205        48204
    12.93300        48201        48205        48201        48202        48193
    12.95000        48200        48204        48200        48196        48202
    12.96700        48204        48202        48208        48200        48206
    12.98300        48214        48208        48208        48198        48201
    13.00000        48201        48212        48212        48210        48209
    13.01700        48198        48217        48210        48208        48205
    13.03300        48198        48201        48200        48201        48212
    13.05000        48198        48204        48208        48206        48200
    13.06700        48212        48205        48210        48202        48205
    13.08300        48202        48202        48209        48209        48201
    13.10000        48204        48194        48198        48202        48190
    13.11700        48186        48200        48201        48197        48188
    13.13300        48186        48190        48178        48188        48189
    13.15000        48186        48192        48178        48184        48182
    13.16700        48178        48174        48186        48182        48176
    13.18300        48177        48178        48181        48188        48181
    13.20000        48184        48184        48180        48188        48184
    13.21700        48174        48182        48174        48180        48181
    13.23300        48185        48188        48186        48173        48180
    13.25000        48192        48185        48181        48177        48181
    13.26700        48176        48186        48173        48182        48177
    13.28300        48185        48181        48170        48182        48189
    13.30000        48177        48196        48182        48172        48182
    13.31700        48181        48182        48174        48178        48184
    13.33300        48184        48181        48180        48174        48176
    13.35000        48186        48181        48181        48177        48178
    13.36700        48182        48180        48178        48184        48186
    13.38300        48185        48189        48182        48181        48180
    13.40000        48177        48177        48181        48184        48192
    13.41700        48182        48176        48185        48181        48192
    13.43300        48180        48186        48189        48186        48181
    13.45000        48190        48188        48188        48189        48182
    13.46700        48188        48184        48184        48180        48188
    13.48300        48180        48176        48184        48173        48182
    13.50000        48182        48182        48185        48180        48172
    13.51700        48169        48177        48174        48173        48182
    13.53300        48170        48182        48170        48169        48176
    13.55000        48181        48178        48170        48180        48182
    13.56700        48181        48166        48178        48172        48180
    13.58300        48180        48182        48174        48180        48178
    13.60000        48189        48178        48182        48180        48174
    13.61700        48169        48178        48172        48182        48181
    13.63300        48178        48176        48180        48184        48178
    13.65000        48177        48176        48180        48170        48173
    13.66700        48172        48178        48180        48176        48178
    13.68300        48177        48178        48177        48186        48184
    13.70000        48180        48178        48181        48180        48176
    13.71700        48176        48170        48180        48174        48181
    13.73300        48186        48185        48180        48180        48185
    13.75000        48176        48180        48172        48174        48173
    13.76700        48177        48180        48180        48176        48166
    13.78300        48182        48177        48170        48173        48181
    13.80000        48181        48170        48180        48176        48173
    13.81700        48172        48173        48173        48174        48173
    13.83300        48176        48180        48164        48176        48172
    13.85000        48174        48174        48182        48177        48180
    13.86700        48178        48180        48165        48184        48178
    13.88300        48173        48168        48185        48184        48174
    13.90000        48176        48176        48178        48178        48176
    13.91700        48170        48178        48168        48165        48176
    13.93300        48177        48178        48172        48168        48165
    13.95000        48178        48172        48176        48185        48180
    13.96700        48177        48174        48177        48173        48181
    13.98300        48170        48168        48168        48177        48182
    14.00000        48170        48174        48177        48181        48181
    14.01700        48184        48172        48186        48178        48169
    14.03300        48178        48186        48181        48182        48178
    14.05000        48182        48180        48181        48176        48182
    14.06700        48178        48177        48181        48185        48169
    14.08300        48177        48178        48181        48182        48172
    14.10000        48185        48188        48181        48185        48174
    14.11700        48181        48178        48180        48184        48189
    14.13300        48193        48186        48181        48188        48185
    14.15000        48186        48193        48185        48194        48193
    14.16700        48189        48190        48190        48196        48194
    14.18300        48193        48198        48209        48205        48206
    14.20000        48202        48212        48214        48209        48225
    14.21700        48228        48232        48232        48234        48240
    14.23300        48248        48253        48254        48258        48262
    14.25000        48273        48273        48269        48273        48296
    14.26700        48294        48294        48296        48296        48316
    14.28300        48312        48314        48313        48314        48326
    14.30000        48330        48326        48325        48337        48337
    14.31700        48340        48356        48352        48353        48357
    14.33300        48356        48357        48348        48361        48362
    14.35000        48373        48357        48370        48368        48370
    14.36700        48374        48373        48377        48372        48376
    14.38300        48376        48377        48384        48380        48380
    14.40000        48388        48376        48388        48384        48385
    14.41700        48384        48384        48392        48386        48386
    14.43300        48388        48382        48381        48385        48377
    14.45000        48386        48378        48381        48384        48378
    14.46700        48377        48370        48370        48378        48369
    14.48300        48376        48373        48372        48365        48373
    14.50000        48358        48370        48369        48360        48360
    14.51700        48358        48360        48361        48362        48342
    14.53300        48354        48341        48334        48349        48338
    14.55000        48336        48342        48332        48336        48334
    14.56700        48333        48330        48329        48334        48313
    14.58300        48320        48322        48325        48324        48321
    14.60000        48317        48312        48324        48310        48316
    14.61700        48309        48306        48318        48310        48298
    14.63300        48304        48297        48297        48298        48298
    14.65000        48293        48288        48288        48289        48289
    14.66700        48278        48281        48289        48280        48280
    14.68300        48281        48270        48272        48285        48277
    14.70000        48277        48264        48272        48265        48274
    14.71700        48273        48272        48272        48264        48268
    14.73300        48264        48260        48270        48269        48268
    14.75000        48250        48257        48248        48246        48246
    14.76700        48244        48245        48248        48240        48242
    14.78300        48240        48236        48241        48241        48234
    14.80000        48229        48234        48234        48232        48229
    14.81700        48242        48236        48229        48229        48232
    14.83300        48225        48232        48225        48234        48214
    14.85000        48229        48221        48224        48226        48222
    14.86700        48220        48222        48224        48218        48218
    14.88300        48217        48212        48222        48218        48213
    14.90000        48206        48217        48214        48217        48206
    14.91700        48204        48216        48210        48212        48220
    14.93300        48202        48214        48202        48206        48202
    14.95000        48202        48210        48202        48209        48206
    14.96700        48206        48189        48204        48213        48196
    14.98300        48205        48196        48194        48197        48196
    15.00000        48188        48194        48189        48196        48189
    15.01700        48185        48185        48174        48181        48186
    15.03300        48184        48181        48178        48184        48182
    15.05000        48178        48177        48181        48174        48174
    15.06700        48186        48181        48176        48177        48176
    15.08300        48176        48174        48174        48176        48182
    15.10000        48181        48169        48173        48174        48178
    15.11700        48174        48173        48170        48169        48178
    15.13300        48172        48173        48170        48173        48169
    15.15000        48182        48173        48170        48168        48168
    15.16700        48173        48181        48172        48168        48172
    15.18300        48178        48176        48172        48176        48180
    15.20000        48174        48169        48170        48164        48162
    15.21700        48174        48177        48172        48164        48172
    15.23300        48172        48173        48169        48168        48162
    15.25000        48158        48174        48166        48178        48165
    15.26700        48170        48173        48170        48172        48174
    15.28300        48177        48176        48177        48166        48181
    15.30000        48173        48176        48176        48170        48177
    15.31700        48172        48169        48157        48169        48164
    15.33300        48174        48173        48170        48165        48169
    15.35000        48161        48177        48168        48173        48161
    15.36700        48173        48172        48165        48170        48156
    15.38300        48161        48161        48168        48166        48168
    15.40000        48170        48172        48184        48174        48166
    15.41700        48164        48164        48168        48168        48162
    15.43300        48161        48162        48176        48166        48165
    15.45000        48166        48173        48172        48166        48165
    15.46700        48168        48173        48180        48176        48176
    15.48300        48178        48172        48176        48180        48172
    15.50000        48182        48174        48172        48182        48178
    15.51700        48182        48185        48186        48173        48186
    15.53300        48172        48174        48186        48181        48188
    15.55000        48184        48190        48188        48176        48192
    15.56700        48190        48186        48197        48197        48189
    15.58300        48193        48197        48194        48189        48201
    15.60000        48201        48200        48202        48196        48198
    15.61700        48202        48205        48202        48200        48205
    15.63300        48214        48208        48206        48208        48208
    15.65000        48213        48204        48213        48214        48216
    15.66700        48208        48220        48229        48221        48225
    15.68300        48225        48224        48221        48229        48217
    15.70000        48224        48230        48225        48229        48229
    15.71700        48228        48228        48229        48233        48230
    15.73300        48222        48233        48220        48225        48226
    15.75000        48233        48238        48233        48233        48241
    15.76700        48236        48246        48233        48233        48238
    15.78300        48241        48234        48244        48232        48228
    15.80000        48233        48245        48236        48230        48245
    15.81700        48236        48236        48237        48244        48238
    15.83300        48230        48238        48238        48240        48238
    15.85000        48236        48240        48230        48240        48237
    15.86700        48236        48233        48238        48234        48230
    15.88300        48228        48229        48236        48241        48245
    15.90000        48238        48237        48236        48226        48240
    15.91700        48238        48242        48245        48241        48248
    15.93300        48238        48250        48238        48234        48240
    15.95000        48237        48244        48241        48230        48248
    15.96700        48234        48236        48241        48234        48241
    15.98300        48242        48245        48242        48238        48240
    16.00000        48234        48238        48234        48242        48245
    16.01700        48242        48241        48233        48242        48241
    16.03300        48236        48240        48248        48236        48237
    16.05000        48238        48229        48233        48237        48228
    16.06700        48234        48229        48232        48238        48234
    16.08300        48230        48226        48224        48218        48221
    16.10000        48232        48217        48217        48218        48221
    16.11700        48224        48220        48222        48216        48222
    16.13300        48224        48214        48218        48221        48229
    16.15000        48212        48222        48214        48222        48218
    16.16700        48220        48212        48222        48220        48225
    16.18300        48217        48216        48212        48224        48217
    16.20000        48221        48210        48222        48216        48208
    16.21700        48220        48217        48213        48217        48212
    16.23300        48214        48218        48222        48208        48213
    16.25000        48206        48214        48210        48210        48212
    16.26700        48214        48214        48209        48210        48210
    16.28300        48210        48208        48212        48214        48208
    16.30000        48213        48208        48208        48209        48208
    16.31700        48209        48206        48200        48192        48206
    16.33300        48201        48205        48200        48198        48201
    16.35000        48201        48197        48202        48204        48198
    16.36700        48198        48197        48190        48190        48189
    16.38300        48190        48197        48194        48190        48189
    16.40000        48189        48192        48190        48198        48188
    16.41700        48190        48192        48194        48189        48194
    16.43300        48192        48186        48181        48176        48190
    16.45000        48180        48178        48176        48176        48178
    16.46700        48168        48177        48182        48172        48172
    16.48300        48165        48174        48178        48173        48168
    16.50000        48168        48165        48173        48160        48165
    16.51700        48172        48157        48172        48157        48165
    16.53300        48165        48161        48156        48156        48165
    16.55000        48164        48154        48156        48153        48156
    16.56700        48160        48152        48160        48154        48158
    16.58300        48157        48154        48157        48158        48156
    16.60000        48153        48158        48158        48157        48158
    16.61700        48156        48148        48146        48154        48152
    16.63300        48152        48153        48144        48156        48157
    16.65000        48150        48156        48153        48146        48154
    16.66700        48153        48152        48146        48150        48154
    16.68300        48154        48157        48154        48150        48153
    16.70000        48149        48153        48140        48157        48154
    16.71700        48141        48150        48142        48148        48138
    16.73300        48157        48161        48148        48161        48150
    16.75000        48148        48149        48156        48144        48152
    16.76700        48153        48150        48144        48145        48149
    16.78300        48149        48153        48153        48145        48149
    16.80000        48145        48136        48148        48144        48145
    16.81700        48140        48141        48145        48141        48149
    16.83300        48142        48146        48145        48138        48148
    16.85000        48137        48144        48140        48129        48145
    16.86700        48141        48142        48140        48141        48137
    16.88300        48137        48144        48142        48130        48138
    16.90000        48136        48136        48137        48140        48133
    16.91700        48126        48137        48132        48142        48146
    16.93300        48148        48132        48136        48134        48138
    16.95000        48129        48138        48136        48130        48128
    16.96700        48141        48128        48121        48128        48132
    16.98300        48126        48130        48128        48128        48129
    17.00000        48132        48122        48136        48134        48124
    17.01700        48124        48118        48132        48132        48134
    17.03300        48133        48137        48129        48133        48134
    17.05000        48138        48126        48129        48126        48128
    17.06700        48124        48129        48128        48118        48118
    17.08300        48128        48133        48126        48121        48128
    17.10000        48118        48125        48118        48137        48118
    17.11700        48134        48130        48133        48137        48132
    17.13300        48140        48140        48134        48136        48133
    17.15000        48134        48136        48138        48126        48136
    17.16700        48140        48134        48142        48134        48136
    17.18300        48138        48133        48140        48137        48138
    17.20000        48141        48141        48146        48140        48138
    17.21700        48136        48138        48138        48136        48146
    17.23300        48142        48140        48148        48148        48141
    17.25000        48142        48138        48142        48145        48149
    17.26700        48146        48149        48146        48138        48154
    17.28300        48137        48146        48149        48148        48156
    17.30000        48144        48145        48150        48150        48158
    17.31700        48152        48157        48161        48142        48156
    17.33300        48157        48154        48145        48160        48156
    17.35000        48157        48152        48160        48153        48152
    17.36700        48146        48157        48149        48162        48156
    17.38300        48152        48156        48158        48150        48154
    17.40000        48161        48156        48162        48156        48164
    17.41700        48154        48161        48158        48154        48162
    17.43300        48156        48165        48156        48164        48157
    17.45000        48166        48168        48164        48161        48174
    17.46700        48165        48165        48166        48166        48172
    17.48300        48174        48174        48184        48174        48172
    17.50000        48180        48173        48166        48176        48172
    17.51700        48181        48177        48166        48169        48169
    17.53300        48176        48174        48174        48169        48165
    17.55000        48166        48174        48178        48177        48200
    17.56700        48173        48182        48180        48180        48180
    17.58300        48177        48178        48178        48170        48178
    17.60000        48178        48185        48173        48181        48189
    17.61700        48185        48194        48181        48182        48185
    17.63300        48182        48181        48174        48176        48182
    17.65000        48184        48188        48185        48188        48177
    17.66700        48192        48188        48193        48185        48186
    17.68300        48198        48188        48186        48189        48190
    17.70000        48178        48186        48190        48182        48188
    17.71700        48188        48192        48186        48180        48181
    17.73300        48181        48186        48174        48182        48181
    17.75000        48186        48178        48186        48177        48173
    17.76700        48177        48174        48190        48182        48186
    17.78300        48185        48177        48185        48172        48186
    17.80000        48177        48185        48181        48178        48185
    17.81700        48177        48174        48182        48185        48185
    17.83300        48180        48188        48189        48184        48188
    17.85000        48181        48189        48186        48186        48184
    17.86700        48193        48182        48185        48181        48185
    17.88300        48188        48177        48186        48188        48182
    17.90000        48188        48188        48174        48185        48186
    17.91700        48174        48176        48181        48176        48176
    17.93300        48165        48177        48178        48182        48180
    17.95000        48169        48178        48173        48172        48170
    17.96700        48174        48173        48168        48178        48173
    17.98300        48166        48176        48176        48186        48174
    18.00000        48172        48170        48168        48166        48176
    18.01700        48173        48166        48176        48165        48170
    18.03300        48178        48170        48166        48173        48170
    18.05000        48168        48170        48161        48164        48169
    18.06700        48170        48157        48164        48160        48169
    18.08300        48176        48168        48158        48161        48170
    18.10000        48164        48158        48157        48166        48160
    18.11700        48154        48168        48162        48166        48160
    18.13300        48154        48152        48154        48157        48150
    18.15000        48146        48148        48160        48146        48153
    18.16700        48150        48146        48142        48146        48152
    18.18300        48140        48136        48138        48142        48149
    18.20000        48153        48138        48132        48144        48134
    18.21700        48138        48138        48138        48133        48140
    18.23300        48136        48140        48138        48138        48132
    18.25000        48134        48141        48140        48133        48141
    18.26700        48136        48137        48138        48132        48140
    18.28300        48141        48137        48145        48137        48137
    18.30000        48140        48141        48138        48129        48138
    18.31700        48142        48132        48132        48146        48133
    18.33300        48126        48136        48124        48132        48134
    18.35000        48134        48142        48132        48120        48125
    18.36700        48126        48136        48117        48132        48120
    18.38300        48130        48128        48122        48118        48126
    18.40000        48121        48129        48129        48120        48125
    18.41700        48122        48122        48133        48129        48124
    18.43300        48124        48121        48122        48130        48125
    18.45000        48126        48126        48125        48138        48132
    18.46700        48122        48134        48126        48125        48140
    18.48300        48128        48124        48133        48126        48130
    18.50000        48132        48126        48134        48125        48126
    18.51700        48128        48134        48133        48138        48129
    18.53300        48132        48116        48121        48122        48133
    18.55000        48120        48125        48128        48136        48132
    18.56700        48140        48132        48134        48129        48134
    18.58300        48136        48142        48133        48137        48133
    18.60000        48134        48129        48117        48117        48128
    18.61700        48125        48129        48126        48120        48126
    18.63300        48132        48112        48121        48132        48133
    18.65000        48126        48117        48130        48126        48134
    18.66700        48129        48129        48118        48128        48132
    18.68300        48137        48130        48130        48133        48128
    18.70000        48132        48125        48138        48125        48137
    18.71700        48130        48118        48137        48134        48132
    18.73300        48134        48136        48137        48136        48134
    18.75000        48142        48136        48144        48145        48138
    18.76700        48137        48134        48126        48138        48141
    18.78300        48134        48132        48129        48142        48140
    18.80000        48133        48144        48136        48133        48128
    18.81700        48134        48133        48136        48138        48140
    18.83300        48129        48133        48125        48120        48140
    18.85000        48137        48136        48138        48132        48130
    18.86700        48133        48140        48133        48142        48134
    18.88300        48132        48126        48128        48134        48134
    18.90000        48134        48134        48130        48132        48136
    18.91700        48134        48142        48137        48138        48142
    18.93300        48142        48138        48145        48149        48150
    18.95000        48138        48142        48152        48150        48153
    18.96700        48154        48153        48153        48152        48154
    18.98300        48156        48152        48152        48154        48150
    19.00000        48157        48156        48144        48149        48150
    19.01700        48160        48148        48148        48153        48144
    19.03300        48152        48158        48154        48161        48152
    19.05000        48154        48161        48156        48161        48162
    19.06700        48166        48174        48166        48162        48177
    19.08300        48176        48168        48170        48160        48178
    19.10000        48172        48176        48177        48180        48180
    19.11700        48185        48180        48181        48180        48181
    19.13300        48186        48192        48188        48196        48182
    19.15000        48189        48204        48198        48189        48190
    19.16700        48197        48202        48208        48197        48188
    19.18300        48200        48208        48205        48210        48201
    19.20000        48213        48208        48213        48210        48202
    19.21700        48218        48202        48217        48217        48221
    19.23300        48225        48221        48229        48220        48217
    19.25000        48221        48226        48240        48232        48226
    19.26700        48233        48232        48233        48236        48226
    19.28300        48237        48233        48234        48232        48240
    19.30000        48237        48236        48234        48241        48244
    19.31700        48246        48242        48240        48246        48240
    19.33300        48240        48254        48254        48250        48246
    19.35000        48246        48253        48249        48250        48245
    19.36700        48241        48248        48250        48252        48254
    19.38300        48256        48237        48236        48244        48245
    19.40000        48234        48246        48241        48253        48258
    19.41700        48254        48245        48253        48253        48252
    19.43300        48248        48244        48253        48245        48248
    19.45000        48245        48252        48249        48246        48253
    19.46700        48254        48242        48233        48250        48249
    19.48300        48242        48238        48245        48244        48241
    19.50000        48244        48248        48249        48242        48241
    19.51700        48238        48237        48237        48244        48242
    19.53300        48241        48233        48236        48236        48244
    19.55000        48241        48241        48244        48240        48236
    19.56700        48246        48244        48238        48234        48242
    19.58300        48232        48236        48234        48230        48222
    19.60000        48230        48220        48230        48238        48225
    19.61700        48226        48232        48226        48228        48224
    19.63300        48221        48220        48217        48224        48214
    19.65000        48218        48224        48217        48218        48213
    19.66700        48209        48225        48208        48214        48213
    19.68300        48220        48214        48218        48214        48220
    19.70000        48217        48209        48218        48221        48222
    19.71700        48225        48229        48229        48238        48236
    19.73300        48233        48218        48230        48224        48218
    19.75000        48214        48217        48221        48214        48212
    19.76700        48213        48210        48190        48198        48196
    19.78300        48196        48200        48190        48198        48192
    19.80000        48188        48196        48185        48188        48184
    19.81700        48186        48184        48176        48190        48176
    19.83300        48180        48189        48189        48181        48186
    19.85000        48182        48186        48185        48190        48197
    19.86700        48198        48184        48205        48201        48193
    19.88300        48197        48198        48205        48196        48201
    19.90000        48193        48197        48197        48209        48210
    19.91700        48212        48198        48204        48212        48217
    19.93300        48206        48218        48212        48218        48221
    19.95000        48213        48217        48216        48217        48225
    19.96700        48229        48225        48228        48234        48232
    19.98300        48228        48225        48226        48230        48234
    19.99700        48234        48226        48237        48234
##END= 
