##TITLE= Headspace from ground pimento berries
##JCAMP-DX= 4.24
##DATA TYPE= GAS CHROMATOGRAPH
##$ASDF TYPE= FIX
##ORIGIN= HP 5890 GC TABULATED file
##OWNER= Dept of Chem, UWI, Mona, JAMAICA
##DATE= 11-26-1995
##TIME= 09:36:13
##NPOINTS=   5999
##XUNITS= TIME
##YUNITS= ARBITRARY
##FIRSTX=      0.00000
##LASTX=     19.99300
##XFACTOR= 1.0
##YFACTOR= 1.0
##FIRSTY=      52626
##MAXY=     212886
##MINY=      49945
##XYDATA= (X++(Y..Y))
     0.00000        52626        52619        52625        52630        52622
     0.01700        52622        52626        52621        52595        52545
     0.03300        52462        52325        52163        51983        51795
     0.05000        51625        51438        51273        51111        50962
     0.06700        50829        50697        50582        50483        50402
     0.08300        50299        50246        50182        50126        50077
     0.10000        50046        50015        49987        49985        49967
     0.11700        49958        49951        49945        49949        49962
     0.13300        49966        49961        49975        49989        50002
     0.15000        50017        50043        50062        50079        50107
     0.16700        50127        50149        50170        50211        50242
     0.18300        50269        50290        50301        50335        50359
     0.20000        50386        50413        50441        50479        50489
     0.21700        50515        50534        50563        50595        50634
     0.23300        50657        50679        50714        50733        50758
     0.25000        50779        50805        50825        50854        50881
     0.26700        50910        50934        50958        50997        51017
     0.28300        51057        51086        51127        51139        51166
     0.30000        51194        51221        51235        51259        51283
     0.31700        51306        51338        51369        51386        51409
     0.33300        51441        51467        51491        51503        51534
     0.35000        51551        51577        51595        51609        51631
     0.36700        51647        51667        51687        51709        51726
     0.38300        51745        51746        51770        51786        51797
     0.40000        51810        51829        51853        51854        51871
     0.41700        51890        51907        51922        51925        51942
     0.43300        51961        51963        51981        51994        52013
     0.45000        52026        52034        52053        52059        52071
     0.46700        52095        52110        52118        52125        52146
     0.48300        52138        52153        52165        52174        52181
     0.50000        52197        52206        52217        52221        52231
     0.51700        52238        52245        52255        52274        52293
     0.53300        52313        52309        52314        52314        52335
     0.55000        52366        52483        52767        53436        54719
     0.56700        56939        63417        73871        83111        92542
     0.58300       101015       107242       111315       113603       114575
     0.60000       114416       113307       111138       107581       102511
     0.61700        96321        89700        83320        77705        73199
     0.63300        70355        71351        74830        75284        72471
     0.65000        69036        66434        64841        63947        64063
     0.66700        64673        64566        63691        62646        61760
     0.68300        61193        60793        60396        59943        59464
     0.70000        58939        58385        57813        57227        56679
     0.71700        56176        55736        55386        55100        54906
     0.73300        54738        54563        54468        54563        54971
     0.75000        55600        56206        56684        57104        57473
     0.76700        57732        57836        57775        57519        57119
     0.78300        56643        56172        55802        55558        55480
     0.80000        55498        55487        55455        55398        55334
     0.81700        55270        55226        55170        55086        54959
     0.83300        54783        54586        54383        54198        54056
     0.85000        54000        53960        53944        53900        53843
     0.86700        53783        53732        53688        53650        53623
     0.88300        53599        53579        53527        53504        53454
     0.90000        53402        53366        53334        53474        53751
     0.91700        53862        53980        54019        53968        53887
     0.93300        53800        53699        53616        53540        53475
     0.95000        53411        53363        53315        53264        53226
     0.96700        53195        53172        53163        53136        53128
     0.98300        53112        53108        53108        53102        53131
     1.00000        53146        53207        53302        53450        53650
     1.01700        53864        54071        54255        54392        54522
     1.03300        54594        54636        54616        54583        54546
     1.05000        54599        54743        54984        55244        55492
     1.06700        55744        55967        56191        56400        56580
     1.08300        56721        56783        56796        56772        56711
     1.10000        56621        56501        56346        56186        55998
     1.11700        55780        55546        55300        55054        54828
     1.13300        54624        54447        54307        54240        54227
     1.15000        54270        54355        54484        54603        54714
     1.16700        54800        54852        54866        54854        54811
     1.18300        54731        54635        54531        54394        54246
     1.20000        54099        53939        53787        53658        53531
     1.21700        53436        53360        53296        53267        53280
     1.23300        53351        53495        53704        53939        54182
     1.25000        54387        54542        54630        54660        54648
     1.26700        54592        54487        54355        54208        54060
     1.28300        53898        53786        53715        53710        53854
     1.30000        54208        54904        56099        58040        60945
     1.31700        65065        70500        77309        85263        94049
     1.33300       103271       112346       120844       128194       134284
     1.35000       138773       141864       143403       143768       143071
     1.36700       141571       139443       137129       134406       131884
     1.38300       129543       127250       125290       123149       121117
     1.40000       118998       116319       113263       109738       105716
     1.41700       101135        96201        91010        85781        80697
     1.43300        75972        71744        67982        64882        62292
     1.45000        60216        58597        57381        56447        55760
     1.46700        55255        54882        54591        54383        54219
     1.48300        54106        54004        53931        53868        53808
     1.50000        53774        53732        53692        53680        53632
     1.51700        53591        53560        53519        53475        53438
     1.53300        53406        53378        53356        53339        53338
     1.55000        53330        53358        53386        53439        53490
     1.56700        53556        53591        53632        53656        53668
     1.58300        53663        53642        53602        53559        53491
     1.60000        53450        53372        53327        53311        53278
     1.61700        53300        53334        53411        53556        53754
     1.63300        54047        54442        54923        55511        56232
     1.65000        57076        57963        58864        59779        60661
     1.66700        61472        62210        62820        63334        63659
     1.68300        63821        63853        63706        63446        63068
     1.70000        62602        62008        61398        60730        60062
     1.71700        59399        58740        58129        57552        57003
     1.73300        56501        56055        55666        55352        55095
     1.75000        54940        54880        54947        55171        55592
     1.76700        56256        57187        58429        60028        61986
     1.78300        64281        66957        69800        72933        76221
     1.80000        79345        82436        85266        87639        89645
     1.81700        91040        91860        92025        91549        90461
     1.83300        88880        86875        84454        81794        79031
     1.85000        76118        73396        70675        68126        65890
     1.86700        63907        62201        60812        59763        59057
     1.88300        58747        58853        59441        60588        62422
     1.90000        65006        68567        73040        78665        85457
     1.91700        93426       102565       112803       123918       135660
     1.93300       147669       159699       171444       182370       192169
     1.95000       200107       206512       210870       212886       212808
     1.96700       210173       205581       199106       191005       181585
     1.98300       171187       160245       149298       138647       128475
     2.00000       118956       110267       102545        95726        89852
     2.01700        84932        80762        77385        74475        72216
     2.03300        70343        68892        67758        66914        66383
     2.05000        66083        65985        66062        66271        66595
     2.06700        67010        67475        67912        68331        68626
     2.08300        68867        68944        68910        68702        68378
     2.10000        67946        67440        66873        66318        65803
     2.11700        65350        65030        64878        65009        65359
     2.13300        66051        67029        68290        69731        71637
     2.15000        73629        75977        78153        80619        82928
     2.16700        85304        87427        89486        91322        92947
     2.18300        94291        95470        96470        97362        98060
     2.20000        98726        99386        99984       100572       101205
     2.21700       101851       102520       103215       103861       104525
     2.23300       105081       105497       105718       105754       105560
     2.25000       105172       104538       103685       102609       101243
     2.26700        99680        97831        95921        93826        91626
     2.28300        89374        87129        84782        82547        80242
     2.30000        78186        76057        74145        72317        70598
     2.31700        69016        67475        66134        64957        63771
     2.33300        62762        61820        60968        60206        59523
     2.35000        58879        58323        57817        57352        56919
     2.36700        56544        56190        55875        55611        55378
     2.38300        55179        54988        54859        54756        54695
     2.40000        54687        54739        54852        55060        55346
     2.41700        55763        56283        56951        57793        58788
     2.43300        60000        61382        62982        64762        66838
     2.45000        69007        71385        73897        76601        79159
     2.46700        81886        84468        86973        89364        91469
     2.48300        93341        94807        95894        96600        96926
     2.50000        96832        96315        95433        94122        92497
     2.51700        90584        88447        86117        83738        81221
     2.53300        78793        76246        73960        71721        69746
     2.55000        67811        66211        64874        63670        62812
     2.56700        62170        61789        61693        61886        62333
     2.58300        63054        64034        65187        66730        68407
     2.60000        70174        72265        74433        76740        79005
     2.61700        81439        83624        85835        87805        89682
     2.63300        91297        92656        93646        94262        94527
     2.65000        94429        94041        93301        92201        90742
     2.66700        89029        87129        84967        82792        80437
     2.68300        78270        75878        73688        71461        69446
     2.70000        67402        65685        64031        62550        61213
     2.71700        60022        58987        58088        57308        56645
     2.73300        56082        55616        55234        54907        54630
     2.75000        54418        54239        54106        53999        53914
     2.76700        53844        53788        53734        53682        53659
     2.78300        53626        53611        53582        53563        53544
     2.80000        53523        53495        53475        53446        53416
     2.81700        53406        53380        53368        53342        53314
     2.83300        53282        53276        53258        53244        53238
     2.85000        53224        53218        53203        53204        53200
     2.86700        53203        53208        53219        53227        53219
     2.88300        53239        53251        53246        53274        53296
     2.90000        53299        53307        53327        53340        53362
     2.91700        53364        53367        53370        53372        53370
     2.93300        53367        53359        53359        53348        53323
     2.95000        53316        53299        53275        53270        53252
     2.96700        53224        53215        53183        53172        53159
     2.98300        53154        53143        53126        53142        53144
     3.00000        53147        53172        53212        53247        53304
     3.01700        53375        53496        53628        53790        54014
     3.03300        54299        54640        55062        55548        56142
     3.05000        56852        57703        58683        59813        61096
     3.06700        62581        64249        66125        68234        70446
     3.08300        72915        75668        78375        81510        84652
     3.10000        87936        91325        94726        98171       101544
     3.11700       104854       108102       111194       114067       116672
     3.13300       118865       120826       122470       123714       124406
     3.15000       124709       124519       123829       122789       121241
     3.16700       119484       117227       114713       111844       108753
     3.18300       105537       102213        98799        95402        91989
     3.20000        88687        85380        82218        79194        76382
     3.21700        73819        71379        69239        67150        65421
     3.23300        63763        62322        61025        59909        58939
     3.25000        58084        57340        56713        56166        55702
     3.26700        55323        54986        54727        54488        54275
     3.28300        54116        53980        53860        53760        53687
     3.30000        53619        53558        53522        53476        53434
     3.31700        53402        53376        53363        53332        53306
     3.33300        53280        53263        53252        53239        53219
     3.35000        53207        53206        53187        53172        53158
     3.36700        53156        53150        53143        53142        53134
     3.38300        53131        53111        53112        53108        53103
     3.40000        53110        53106        53080        53087        53084
     3.41700        53071        53071        53066        53063        53062
     3.43300        53047        53052        53039        53036        53024
     3.45000        53030        53026        53026        53026        53012
     3.46700        53015        53012        53010        53014        53014
     3.48300        52999        53006        53004        52994        52988
     3.50000        52987        52976        52967        52968        52971
     3.51700        52954        52952        52940        52943        52940
     3.53300        52942        52948        52946        52942        52943
     3.55000        52939        52930        52948        52939        52946
     3.56700        52947        52950        52942        52930        52934
     3.58300        52951        52947        52948        52963        52950
     3.60000        52940        52935        52952        52955        52963
     3.61700        52964        52968        52974        52966        52972
     3.63300        52967        52966        52962        52960        52958
     3.65000        52944        52944        52930        52928        52918
     3.66700        52918        52912        52904        52906        52900
     3.68300        52888        52882        52878        52884        52880
     3.70000        52888        52890        52887        52890        52880
     3.71700        52892        52880        52895        52892        52898
     3.73300        52891        52894        52892        52892        52899
     3.75000        52908        52919        52907        52918        52920
     3.76700        52930        52924        52927        52940        52939
     3.78300        52942        52940        52939        52934        52928
     3.80000        52928        52926        52922        52923        52924
     3.81700        52912        52907        52900        52900        52906
     3.83300        52899        52890        52878        52886        52879
     3.85000        52870        52870        52858        52859        52848
     3.86700        52858        52850        52854        52843        52847
     3.88300        52844        52835        52819        52807        52807
     3.90000        52807        52806        52794        52800        52780
     3.91700        52771        52771        52758        52743        52754
     3.93300        52746        52740        52735        52728        52731
     3.95000        52711        52719        52707        52706        52711
     3.96700        52699        52701        52698        52697        52695
     3.98300        52709        52695        52697        52697        52697
     4.00000        52695        52693        52689        52681        52685
     4.01700        52695        52695        52689        52691        52685
     4.03300        52685        52690        52691        52699        52699
     4.05000        52703        52694        52697        52695        52698
     4.06700        52703        52703        52709        52711        52705
     4.08300        52715        52717        52723        52731        52738
     4.10000        52734        52746        52735        52739        52758
     4.11700        52756        52758        52763        52772        52780
     4.13300        52776        52788        52798        52799        52807
     4.15000        52807        52807        52807        52807        52812
     4.16700        52823        52823        52811        52826        52820
     4.18300        52815        52807        52808        52826        52810
     4.20000        52822        52811        52807        52804        52802
     4.21700        52795        52786        52782        52791        52771
     4.23300        52774        52767        52758        52762        52742
     4.25000        52748        52747        52751        52752        52730
     4.26700        52732        52728        52734        52714        52714
     4.28300        52720        52718        52709        52705        52703
     4.30000        52691        52686        52697        52693        52683
     4.31700        52671        52683        52670        52670        52671
     4.33300        52679        52666        52671        52679        52663
     4.35000        52659        52670        52665        52669        52667
     4.36700        52659        52669        52671        52678        52685
     4.38300        52685        52690        52685        52698        52702
     4.40000        52701        52713        52718        52724        52728
     4.41700        52746        52742        52747        52759        52775
     4.43300        52782        52792        52807        52822        52838
     4.45000        52840        52858        52868        52868        52892
     4.46700        52892        52900        52916        52908        52926
     4.48300        52922        52934        52931        52939        52947
     4.50000        52950        52938        52948        52938        52931
     4.51700        52936        52926        52914        52908        52902
     4.53300        52898        52886        52878        52884        52872
     4.55000        52870        52855        52850        52836        52831
     4.56700        52828        52816        52819        52792        52798
     4.58300        52787        52775        52766        52754        52756
     4.60000        52735        52739        52739        52722        52710
     4.61700        52713        52705        52703        52698        52697
     4.63300        52681        52681        52662        52663        52663
     4.65000        52654        52651        52654        52646        52649
     4.66700        52646        52643        52646        52645        52650
     4.68300        52651        52651        52654        52655        52665
     4.70000        52663        52659        52674        52670        52671
     4.71700        52681        52659        52661        52665        52665
     4.73300        52666        52678        52669        52671        52673
     4.75000        52675        52669        52675        52683        52681
     4.76700        52678        52673        52675        52667        52669
     4.78300        52669        52670        52682        52675        52663
     4.80000        52671        52663        52674        52673        52681
     4.81700        52673        52673        52662        52667        52663
     4.83300        52675        52665        52674        52678        52681
     4.85000        52675        52667        52667        52662        52662
     4.86700        52669        52659        52659        52665        52665
     4.88300        52658        52665        52671        52666        52658
     4.90000        52658        52657        52654        52657        52646
     4.91700        52646        52655        52651        52654        52655
     4.93300        52649        52655        52662        52654        52650
     4.95000        52665        52665        52657        52650        52665
     4.96700        52665        52651        52662        52667        52674
     4.98300        52665        52663        52662        52666        52659
     5.00000        52667        52661        52673        52663        52651
     5.01700        52669        52669        52662        52674        52671
     5.03300        52675        52675        52669        52661        52671
     5.05000        52687        52683        52687        52693        52687
     5.06700        52681        52694        52693        52682        52697
     5.08300        52691        52695        52689        52705        52702
     5.10000        52710        52710        52722        52705        52719
     5.11700        52722        52713        52709        52722        52719
     5.13300        52723        52722        52719        52714        52719
     5.15000        52723        52731        52730        52731        52740
     5.16700        52738        52731        52740        52742        52756
     5.18300        52750        52755        52746        52743        52751
     5.20000        52747        52743        52743        52754        52754
     5.21700        52755        52747        52754        52755        52751
     5.23300        52744        52755        52758        52751        52748
     5.25000        52756        52752        52751        52744        52748
     5.26700        52747        52740        52747        52743        52732
     5.28300        52736        52734        52746        52746        52746
     5.30000        52748        52739        52742        52740        52747
     5.31700        52740        52756        52738        52750        52746
     5.33300        52754        52750        52748        52754        52766
     5.35000        52758        52770        52758        52768        52758
     5.36700        52771        52767        52759        52759        52756
     5.38300        52762        52751        52755        52762        52759
     5.40000        52763        52760        52750        52752        52759
     5.41700        52758        52755        52762        52746        52755
     5.43300        52740        52736        52728        52736        52731
     5.45000        52736        52736        52732        52723        52731
     5.46700        52720        52727        52727        52734        52724
     5.48300        52719        52713        52723        52713        52703
     5.50000        52718        52715        52720        52720        52714
     5.51700        52711        52706        52691        52702        52697
     5.53300        52714        52713        52711        52709        52724
     5.55000        52713        52710        52707        52719        52701
     5.56700        52703        52707        52707        52703        52701
     5.58300        52695        52690        52699        52689        52678
     5.60000        52689        52693        52681        52701        52698
     5.61700        52693        52699        52698        52694        52699
     5.63300        52697        52706        52701        52713        52706
     5.65000        52722        52717        52715        52720        52723
     5.66700        52723        52726        52720        52713        52732
     5.68300        52718        52713        52722        52724        52722
     5.70000        52724        52710        52718        52723        52734
     5.71700        52728        52727        52730        52724        52726
     5.73300        52724        52719        52719        52711        52711
     5.75000        52723        52707        52715        52701        52699
     5.76700        52698        52694        52702        52697        52689
     5.78300        52690        52679        52683        52679        52679
     5.80000        52682        52675        52677        52669        52659
     5.81700        52665        52675        52673        52666        52659
     5.83300        52646        52653        52663        52651        52645
     5.85000        52654        52658        52651        52654        52657
     5.86700        52645        52654        52651        52651        52659
     5.88300        52661        52667        52659        52663        52659
     5.90000        52658        52669        52677        52666        52670
     5.91700        52663        52678        52670        52671        52678
     5.93300        52666        52666        52666        52673        52671
     5.95000        52658        52665        52674        52673        52669
     5.96700        52670        52663        52667        52661        52658
     5.98300        52666        52658        52650        52646        52643
     6.00000        52643        52649        52642        52645        52642
     6.01700        52634        52641        52641        52649        52653
     6.03300        52654        52649        52646        52653        52650
     6.05000        52657        52654        52647        52649        52655
     6.06700        52655        52655        52653        52650        52654
     6.08300        52659        52655        52662        52658        52654
     6.10000        52659        52649        52641        52650        52642
     6.11700        52654        52645        52647        52635        52639
     6.13300        52646        52643        52655        52655        52649
     6.15000        52661        52650        52657        52654        52659
     6.16700        52663        52667        52659        52665        52671
     6.18300        52667        52662        52670        52662        52673
     6.20000        52666        52671        52657        52666        52667
     6.21700        52665        52671        52682        52682        52675
     6.23300        52675        52681        52678        52682        52682
     6.25000        52689        52699        52677        52677        52686
     6.26700        52690        52677        52689        52678        52686
     6.28300        52685        52682        52675        52678        52677
     6.30000        52677        52677        52673        52654        52665
     6.31700        52661        52662        52657        52662        52661
     6.33300        52657        52657        52661        52663        52661
     6.35000        52658        52651        52661        52646        52647
     6.36700        52642        52639        52643        52638        52641
     6.38300        52639        52642        52637        52641        52646
     6.40000        52639        52645        52654        52659        52657
     6.41700        52650        52665        52665        52671        52682
     6.43300        52682        52681        52683        52686        52678
     6.45000        52682        52695        52698        52699        52705
     6.46700        52702        52709        52705        52705        52695
     6.48300        52713        52703        52714        52717        52714
     6.50000        52702        52706        52710        52722        52718
     6.51700        52710        52727        52719        52724        52724
     6.53300        52714        52720        52717        52711        52711
     6.55000        52709        52726        52722        52713        52722
     6.56700        52722        52727        52728        52719        52719
     6.58300        52719        52728        52718        52732        52714
     6.60000        52720        52715        52711        52723        52718
     6.61700        52724        52714        52719        52717        52720
     6.63300        52726        52719        52734        52738        52726
     6.65000        52730        52742        52717        52722        52731
     6.66700        52724        52723        52723        52717        52719
     6.68300        52715        52711        52706        52710        52710
     6.70000        52715        52724        52713        52709        52718
     6.71700        52711        52720        52714        52715        52709
     6.73300        52709        52727        52720        52710        52722
     6.75000        52713        52720        52711        52711        52717
     6.76700        52707        52715        52724        52713        52728
     6.78300        52717        52719        52711        52703        52695
     6.80000        52701        52711        52699        52713        52717
     6.81700        52707        52713        52699        52705        52703
     6.83300        52717        52703        52713        52709        52705
     6.85000        52719        52715        52719        52705        52720
     6.86700        52715        52697        52711        52690        52698
     6.88300        52697        52695        52691        52682        52691
     6.90000        52691        52677        52674        52679        52679
     6.91700        52682        52682        52686        52669        52674
     6.93300        52671        52670        52669        52675        52678
     6.95000        52675        52677        52665        52678        52671
     6.96700        52677        52674        52674        52669        52663
     6.98300        52658        52670        52670        52671        52655
     7.00000        52653        52665        52658        52659        52661
     7.01700        52650        52662        52655        52657        52650
     7.03300        52658        52657        52659        52658        52666
     7.05000        52657        52654        52647        52655        52654
     7.06700        52655        52647        52659        52654        52650
     7.08300        52655        52650        52661        52662        52666
     7.10000        52670        52674        52681        52678        52690
     7.11700        52695        52703        52706        52726        52732
     7.13300        52744        52755        52772        52788        52807
     7.15000        52820        52842        52872        52902        52912
     7.16700        52940        52971        53015        53040        53079
     7.18300        53110        53140        53170        53212        53247
     7.20000        53282        53328        53374        53410        53439
     7.21700        53483        53539        53576        53614        53660
     7.23300        53700        53734        53767        53800        53838
     7.25000        53880        53906        53931        53962        53980
     7.26700        53996        54004        54040        54056        54071
     7.28300        54086        54082        54102        54110        54108
     7.30000        54099        54088        54094        54094        54092
     7.31700        54086        54072        54067        54050        54034
     7.33300        54020        54028        53992        53970        53954
     7.35000        53918        53914        53883        53866        53846
     7.36700        53842        53804        53786        53754        53731
     7.38300        53710        53696        53663        53631        53606
     7.40000        53575        53554        53531        53515        53480
     7.41700        53459        53439        53414        53376        53351
     7.43300        53316        53299        53268        53262        53239
     7.45000        53214        53194        53188        53167        53155
     7.46700        53127        53119        53110        53076        53075
     7.48300        53056        53043        53034        53015        53006
     7.50000        52988        52972        52958        52950        52928
     7.51700        52923        52912        52898        52890        52876
     7.53300        52866        52850        52834        52823        52823
     7.55000        52830        52828        52808        52807        52792
     7.56700        52800        52788        52787        52779        52784
     7.58300        52774        52775        52758        52746        52752
     7.60000        52739        52743        52742        52742        52740
     7.61700        52730        52722        52723        52724        52720
     7.63300        52710        52715        52697        52699        52702
     7.65000        52695        52687        52681        52697        52690
     7.66700        52671        52671        52671        52669        52670
     7.68300        52678        52681        52669        52658        52653
     7.70000        52666        52659        52662        52661        52658
     7.71700        52665        52651        52655        52653        52650
     7.73300        52638        52655        52645        52641        52634
     7.75000        52641        52627        52638        52642        52635
     7.76700        52637        52647        52641        52638        52639
     7.78300        52654        52653        52653        52650        52650
     7.80000        52634        52631        52619        52622        52621
     7.81700        52633        52627        52634        52618        52625
     7.83300        52625        52625        52623        52635        52637
     7.85000        52634        52629        52625        52622        52619
     7.86700        52627        52619        52630        52625        52610
     7.88300        52619        52626        52629        52621        52623
     7.90000        52619        52617        52625        52621        52623
     7.91700        52609        52622        52617        52615        52625
     7.93300        52609        52607        52609        52614        52621
     7.95000        52617        52621        52618        52618        52627
     7.96700        52625        52629        52621        52622        52617
     7.98300        52617        52615        52619        52618        52614
     8.00000        52609        52610        52607        52602        52598
     8.01700        52602        52606        52603        52609        52605
     8.03300        52606        52599        52615        52601        52614
     8.05000        52607        52621        52614        52609        52605
     8.06700        52606        52607        52614        52611        52621
     8.08300        52614        52610        52617        52625        52626
     8.10000        52629        52623        52622        52615        52615
     8.11700        52619        52609        52610        52618        52611
     8.13300        52615        52607        52617        52609        52614
     8.15000        52601        52607        52615        52611        52602
     8.16700        52606        52601        52605        52603        52610
     8.18300        52611        52610        52601        52609        52610
     8.20000        52615        52621        52614        52615        52625
     8.21700        52630        52625        52621        52623        52627
     8.23300        52638        52639        52631        52641        52637
     8.25000        52645        52651        52649        52651        52665
     8.26700        52673        52673        52667        52670        52673
     8.28300        52673        52665        52666        52671        52675
     8.30000        52655        52665        52670        52675        52675
     8.31700        52678        52674        52661        52665        52658
     8.33300        52658        52667        52659        52677        52670
     8.35000        52670        52669        52670        52667        52678
     8.36700        52678        52686        52686        52677        52679
     8.38300        52682        52675        52675        52674        52683
     8.40000        52683        52678        52683        52678        52683
     8.41700        52682        52679        52682        52690        52675
     8.43300        52674        52679        52674        52661        52674
     8.45000        52674        52667        52673        52670        52665
     8.46700        52666        52663        52670        52665        52671
     8.48300        52673        52670        52655        52666        52663
     8.50000        52663        52662        52653        52673        52655
     8.51700        52655        52651        52639        52650        52654
     8.53300        52665        52662        52655        52653        52654
     8.55000        52663        52655        52654        52657        52657
     8.56700        52651        52646        52653        52647        52655
     8.58300        52642        52649        52653        52637        52635
     8.60000        52639        52639        52630        52643        52637
     8.61700        52634        52627        52627        52626        52629
     8.63300        52626        52625        52631        52627        52621
     8.65000        52639        52630        52637        52633        52641
     8.66700        52626        52626        52631        52634        52623
     8.68300        52625        52623        52615        52610        52607
     8.70000        52594        52591        52590        52594        52583
     8.71700        52590        52594        52591        52577        52579
     8.73300        52582        52586        52579        52575        52589
     8.75000        52570        52582        52581        52587        52578
     8.76700        52570        52577        52574        52574        52570
     8.78300        52567        52566        52566        52571        52575
     8.80000        52566        52566        52559        52582        52577
     8.81700        52582        52585        52591        52589        52587
     8.83300        52574        52581        52591        52599        52597
     8.85000        52593        52593        52601        52591        52593
     8.86700        52594        52603        52603        52607        52610
     8.88300        52615        52605        52611        52619        52607
     8.90000        52597        52605        52609        52606        52607
     8.91700        52606        52598        52593        52591        52607
     8.93300        52597        52590        52594        52587        52594
     8.95000        52594        52610        52610        52610        52606
     8.96700        52613        52619        52617        52619        52621
     8.98300        52621        52617        52614        52617        52613
     9.00000        52614        52607        52610        52602        52610
     9.01700        52603        52614        52605        52607        52607
     9.03300        52607        52610        52610        52605        52597
     9.05000        52610        52597        52610        52598        52605
     9.06700        52615        52611        52611        52605        52595
     9.08300        52597        52619        52613        52605        52613
     9.10000        52595        52587        52602        52587        52602
     9.11700        52598        52593        52597        52589        52591
     9.13300        52594        52598        52609        52599        52597
     9.15000        52590        52597        52586        52583        52587
     9.16700        52597        52594        52582        52593        52579
     9.18300        52593        52586        52601        52591        52605
     9.20000        52599        52601        52609        52609        52609
     9.21700        52619        52606        52619        52618        52606
     9.23300        52619        52605        52607        52615        52610
     9.25000        52610        52613        52601        52613        52603
     9.26700        52603        52609        52607        52605        52598
     9.28300        52602        52602        52605        52597        52597
     9.30000        52597        52598        52614        52585        52590
     9.31700        52591        52595        52585        52610        52607
     9.33300        52617        52597        52613        52614        52618
     9.35000        52619        52631        52623        52631        52630
     9.36700        52629        52625        52626        52629        52615
     9.38300        52623        52611        52619        52622        52613
     9.40000        52614        52618        52626        52630        52623
     9.41700        52630        52626        52623        52631        52635
     9.43300        52646        52642        52642        52639        52631
     9.45000        52634        52631        52646        52635        52634
     9.46700        52630        52631        52635        52634        52638
     9.48300        52637        52637        52635        52627        52631
     9.50000        52630        52623        52634        52622        52622
     9.51700        52618        52617        52614        52610        52611
     9.53300        52611        52614        52615        52614        52609
     9.55000        52610        52606        52609        52610        52606
     9.56700        52609        52605        52603        52598        52595
     9.58300        52586        52590        52589        52587        52578
     9.60000        52569        52567        52567        52575        52575
     9.61700        52571        52569        52558        52558        52570
     9.63300        52562        52571        52569        52562        52565
     9.65000        52575        52573        52573        52586        52586
     9.66700        52579        52578        52575        52577        52581
     9.68300        52589        52589        52586        52586        52590
     9.70000        52581        52586        52590        52579        52574
     9.71700        52586        52594        52594        52587        52610
     9.73300        52599        52603        52609        52614        52609
     9.75000        52606        52607        52610        52601        52599
     9.76700        52597        52613        52609        52609        52615
     9.78300        52621        52610        52603        52615        52609
     9.80000        52621        52622        52621        52614        52609
     9.81700        52613        52618        52617        52622        52617
     9.83300        52614        52611        52621        52623        52619
     9.85000        52617        52618        52631        52639        52619
     9.86700        52637        52631        52625        52623        52619
     9.88300        52619        52625        52622        52615        52618
     9.90000        52614        52622        52622        52629        52633
     9.91700        52634        52627        52625        52630        52634
     9.93300        52627        52631        52631        52631        52625
     9.95000        52633        52623        52626        52633        52629
     9.96700        52631        52611        52621        52621        52623
     9.98300        52619        52627        52625        52631        52618
    10.00000        52621        52621        52615        52606        52610
    10.01700        52610        52609        52603        52602        52601
    10.03300        52595        52589        52599        52602        52585
    10.05000        52582        52595        52586        52593        52593
    10.06700        52597        52590        52583        52587        52593
    10.08300        52589        52591        52594        52605        52597
    10.10000        52593        52598        52590        52591        52591
    10.11700        52583        52582        52587        52586        52585
    10.13300        52578        52590        52587        52577        52581
    10.15000        52586        52582        52590        52579        52581
    10.16700        52577        52579        52581        52573        52582
    10.18300        52574        52563        52573        52565        52563
    10.20000        52555        52567        52570        52557        52565
    10.21700        52570        52571        52573        52578        52575
    10.23300        52569        52571        52574        52567        52563
    10.25000        52575        52587        52574        52581        52582
    10.26700        52587        52586        52585        52589        52590
    10.28300        52589        52601        52587        52585        52593
    10.30000        52586        52594        52590        52585        52585
    10.31700        52591        52591        52590        52601        52585
    10.33300        52590        52589        52593        52589        52585
    10.35000        52570        52586        52599        52601        52594
    10.36700        52597        52594        52585        52594        52590
    10.38300        52585        52581        52599        52601        52585
    10.40000        52587        52586        52583        52589        52598
    10.41700        52593        52591        52579        52583        52579
    10.43300        52571        52578        52578        52566        52573
    10.45000        52575        52570        52571        52573        52570
    10.46700        52574        52565        52566        52569        52571
    10.48300        52573        52574        52577        52567        52563
    10.50000        52574        52561        52565        52557        52567
    10.51700        52570        52573        52578        52571        52569
    10.53300        52577        52574        52570        52574        52571
    10.55000        52570        52573        52561        52574        52571
    10.56700        52557        52567        52558        52577        52563
    10.58300        52574        52569        52565        52563        52563
    10.60000        52577        52563        52567        52571        52577
    10.61700        52563        52567        52567        52581        52570
    10.63300        52571        52570        52575        52575        52575
    10.65000        52585        52581        52583        52579        52583
    10.66700        52589        52581        52581        52587        52586
    10.68300        52591        52591        52582        52581        52575
    10.70000        52589        52577        52586        52571        52578
    10.71700        52567        52570        52562        52562        52571
    10.73300        52563        52559        52561        52546        52551
    10.75000        52559        52558        52553        52549        52550
    10.76700        52547        52549        52545        52543        52543
    10.78300        52554        52546        52549        52537        52539
    10.80000        52542        52543        52542        52551        52539
    10.81700        52543        52543        52550        52537        52555
    10.83300        52553        52562        52570        52559        52565
    10.85000        52563        52565        52562        52571        52579
    10.86700        52587        52575        52586        52586        52591
    10.88300        52590        52599        52597        52598        52605
    10.90000        52590        52594        52598        52601        52606
    10.91700        52611        52610        52614        52602        52609
    10.93300        52614        52599        52609        52609        52607
    10.95000        52595        52599        52605        52593        52599
    10.96700        52599        52625        52621        52611        52618
    10.98300        52611        52606        52611        52622        52611
    11.00000        52623        52625        52611        52619        52629
    11.01700        52633        52626        52622        52627        52611
    11.03300        52617        52610        52610        52610        52621
    11.05000        52617        52627        52609        52605        52605
    11.06700        52602        52622        52622        52610        52623
    11.08300        52607        52610        52618        52609        52603
    11.10000        52615        52623        52625        52621        52615
    11.11700        52618        52619        52626        52625        52629
    11.13300        52619        52615        52625        52615        52621
    11.15000        52613        52610        52601        52603        52595
    11.16700        52590        52589        52579        52579        52573
    11.18300        52570        52575        52563        52570        52567
    11.20000        52567        52559        52569        52563        52561
    11.21700        52558        52562        52555        52567        52566
    11.23300        52562        52567        52567        52570        52569
    11.25000        52573        52574        52579        52570        52562
    11.26700        52565        52570        52561        52563        52555
    11.28300        52562        52563        52565        52557        52555
    11.30000        52562        52543        52565        52549        52558
    11.31700        52551        52545        52531        52539        52537
    11.33300        52533        52541        52542        52549        52547
    11.35000        52543        52547        52546        52550        52561
    11.36700        52557        52558        52551        52551        52546
    11.38300        52562        52558        52555        52559        52557
    11.40000        52549        52550        52543        52541        52543
    11.41700        52542        52541        52550        52537        52527
    11.43300        52529        52531        52539        52539        52546
    11.45000        52550        52547        52557        52559        52563
    11.46700        52554        52570        52562        52570        52574
    11.48300        52567        52571        52567        52570        52575
    11.50000        52566        52578        52573        52565        52566
    11.51700        52566        52569        52567        52575        52567
    11.53300        52573        52567        52581        52581        52585
    11.55000        52589        52594        52597        52598        52590
    11.56700        52602        52598        52605        52602        52617
    11.58300        52605        52626        52603        52611        52605
    11.60000        52606        52607        52601        52598        52598
    11.61700        52594        52597        52587        52589        52597
    11.63300        52586        52590        52594        52570        52582
    11.65000        52578        52585        52577        52579        52570
    11.66700        52562        52567        52554        52557        52565
    11.68300        52557        52563        52553        52561        52549
    11.70000        52549        52557        52549        52559        52554
    11.71700        52563        52558        52557        52567        52566
    11.73300        52567        52566        52566        52579        52563
    11.75000        52562        52550        52570        52561        52570
    11.76700        52566        52573        52566        52566        52567
    11.78300        52557        52562        52567        52567        52571
    11.80000        52559        52559        52557        52562        52567
    11.81700        52557        52567        52567        52557        52558
    11.83300        52558        52561        52569        52559        52563
    11.85000        52558        52559        52541        52547        52550
    11.86700        52539        52551        52543        52545        52541
    11.88300        52534        52530        52530        52523        52534
    11.90000        52517        52529        52518        52517        52515
    11.91700        52521        52518        52509        52510        52519
    11.93300        52510        52509        52515        52521        52530
    11.95000        52534        52533        52523        52525        52535
    11.96700        52530        52525        52523        52526        52535
    11.98300        52542        52526        52530        52527        52537
    12.00000        52538        52547        52542        52531        52527
    12.01700        52527        52521        52526        52529        52523
    12.03300        52535        52526        52519        52519        52523
    12.05000        52515        52527        52525        52526        52521
    12.06700        52515        52521        52507        52503        52503
    12.08300        52502        52514        52507        52505        52490
    12.10000        52498        52501        52501        52490        52498
    12.11700        52493        52490        52481        52493        52485
    12.13300        52487        52493        52490        52483        52486
    12.15000        52479        52470        52477        52482        52482
    12.16700        52479        52467        52481        52475        52470
    12.18300        52466        52465        52466        52467        52467
    12.20000        52458        52470        52470        52478        52475
    12.21700        52491        52479        52471        52479        52481
    12.23300        52475        52471        52483        52483        52483
    12.25000        52483        52483        52483        52487        52489
    12.26700        52489        52487        52502        52502        52493
    12.28300        52502        52499        52502        52501        52507
    12.30000        52510        52511        52509        52514        52507
    12.31700        52506        52523        52527        52526        52511
    12.33300        52507        52503        52511        52509        52507
    12.35000        52506        52507        52502        52505        52502
    12.36700        52503        52499        52507        52509        52506
    12.38300        52499        52501        52501        52498        52493
    12.40000        52497        52505        52501        52501        52494
    12.41700        52490        52490        52498        52491        52494
    12.43300        52487        52482        52485        52487        52493
    12.45000        52489        52483        52483        52494        52482
    12.46700        52474        52463        52470        52467        52459
    12.48300        52473        52463        52459        52458        52461
    12.50000        52462        52474        52473        52473        52479
    12.51700        52473        52471        52467        52469        52477
    12.53300        52483        52483        52483        52473        52474
    12.55000        52479        52478        52471        52483        52478
    12.56700        52486        52485        52486        52479        52483
    12.58300        52489        52498        52505        52505        52499
    12.60000        52489        52499        52499        52486        52483
    12.61700        52485        52482        52483        52479        52465
    12.63300        52467        52461        52461        52459        52451
    12.65000        52446        52435        52442        52438        52439
    12.66700        52431        52435        52430        52435        52418
    12.68300        52415        52415        52414        52414        52410
    12.70000        52421        52421        52418        52403        52415
    12.71700        52411        52418        52417        52426        52418
    12.73300        52410        52403        52398        52399        52409
    12.75000        52406        52405        52410        52402        52398
    12.76700        52401        52394        52390        52394        52399
    12.78300        52391        52389        52379        52379        52379
    12.80000        52369        52374        52378        52377        52381
    12.81700        52382        52390        52398        52394        52405
    12.83300        52406        52406        52410        52405        52418
    12.85000        52415        52418        52418        52442        52437
    12.86700        52434        52425        52445        52447        52447
    12.88300        52461        52469        52465        52455        52457
    12.90000        52461        52455        52462        52466        52470
    12.91700        52466        52463        52463        52482        52477
    12.93300        52469        52483        52481        52482        52481
    12.95000        52485        52487        52486        52498        52503
    12.96700        52493        52495        52502        52505        52514
    12.98300        52513        52514        52510        52525        52526
    13.00000        52523        52515        52510        52518        52511
    13.01700        52521        52506        52511        52515        52503
    13.03300        52506        52499        52514        52511        52510
    13.05000        52517        52514        52509        52507        52510
    13.06700        52511        52509        52518        52502        52506
    13.08300        52497        52495        52495        52497        52497
    13.10000        52485        52503        52501        52487        52497
    13.11700        52499        52498        52506        52494        52509
    13.13300        52506        52497        52513        52515        52523
    13.15000        52522        52525        52525        52523        52519
    13.16700        52510        52521        52515        52522        52531
    13.18300        52523        52527        52513        52526        52521
    13.20000        52525        52519        52518        52523        52514
    13.21700        52502        52502        52522        52507        52503
    13.23300        52495        52502        52507        52493        52498
    13.25000        52502        52503        52501        52505        52503
    13.26700        52501        52501        52499        52503        52514
    13.28300        52522        52517        52517        52513        52509
    13.30000        52510        52507        52502        52515        52513
    13.31700        52507        52499        52498        52502        52502
    13.33300        52502        52505        52513        52509        52509
    13.35000        52499        52507        52497        52486        52499
    13.36700        52505        52497        52490        52483        52475
    13.38300        52470        52481        52466        52478        52466
    13.40000        52466        52463        52459        52463        52466
    13.41700        52461        52473        52463        52467        52466
    13.43300        52463        52477        52458        52473        52466
    13.45000        52469        52475        52475        52469        52475
    13.46700        52473        52481        52479        52486        52483
    13.48300        52483        52483        52483        52493        52491
    13.50000        52487        52501        52489        52498        52491
    13.51700        52494        52485        52490        52495        52486
    13.53300        52490        52493        52485        52498        52485
    13.55000        52486        52482        52485        52483        52475
    13.56700        52470        52482        52466        52475        52469
    13.58300        52473        52474        52481        52482        52489
    13.60000        52490        52490        52486        52495        52490
    13.61700        52478        52478        52471        52475        52471
    13.63300        52463        52467        52458        52465        52457
    13.65000        52450        52465        52457        52447        52459
    13.66700        52446        52459        52458        52453        52451
    13.68300        52447        52445        52445        52442        52446
    13.70000        52457        52442        52438        52434        52434
    13.71700        52433        52433        52423        52421        52418
    13.73300        52417        52430        52422        52399        52422
    13.75000        52414        52415        52415        52415        52418
    13.76700        52409        52405        52405        52407        52410
    13.78300        52411        52406        52407        52405        52405
    13.80000        52405        52410        52402        52395        52402
    13.81700        52413        52405        52397        52397        52393
    13.83300        52395        52403        52387        52406        52413
    13.85000        52413        52415        52421        52413        52405
    13.86700        52413        52413        52410        52411        52403
    13.88300        52405        52399        52403        52393        52402
    13.90000        52401        52395        52399        52394        52393
    13.91700        52397        52401        52410        52410        52409
    13.93300        52401        52407        52406        52411        52403
    13.95000        52417        52413        52413        52407        52403
    13.96700        52405        52403        52425        52418        52423
    13.98300        52425        52421        52431        52426        52419
    14.00000        52437        52441        52437        52445        52447
    14.01700        52439        52433        52433        52442        52443
    14.03300        52446        52458        52441        52453        52446
    14.05000        52439        52453        52451        52450        52443
    14.06700        52454        52453        52458        52455        52461
    14.08300        52465        52467        52469        52467        52466
    14.10000        52458        52473        52474        52482        52475
    14.11700        52466        52471        52473        52482        52478
    14.13300        52481        52477        52478        52482        52483
    14.15000        52486        52494        52486        52498        52506
    14.16700        52485        52487        52483        52483        52498
    14.18300        52498        52495        52497        52505        52487
    14.20000        52498        52487        52483        52495        52479
    14.21700        52495        52495        52493        52493        52483
    14.23300        52490        52479        52474        52497        52495
    14.25000        52490        52493        52489        52489        52485
    14.26700        52490        52493        52486        52485        52498
    14.28300        52475        52486        52481        52490        52485
    14.30000        52478        52474        52479        52463        52481
    14.31700        52487        52482        52483        52478        52470
    14.33300        52471        52469        52463        52482        52478
    14.35000        52467        52490        52477        52478        52457
    14.36700        52465        52463        52471        52462        52463
    14.38300        52463        52459        52463        52458        52465
    14.40000        52453        52463        52463        52470        52465
    14.41700        52467        52470        52473        52477        52478
    14.43300        52477        52478        52465        52467        52491
    14.45000        52485        52477        52477        52485        52479
    14.46700        52469        52463        52473        52470        52478
    14.48300        52467        52470        52475        52473        52478
    14.50000        52481        52494        52490        52499        52505
    14.51700        52506        52501        52506        52514        52519
    14.53300        52515        52522        52510        52515        52511
    14.55000        52518        52523        52510        52519        52517
    14.56700        52514        52509        52514        52503        52498
    14.58300        52486        52494        52509        52487        52499
    14.60000        52505        52486        52491        52475        52483
    14.61700        52499        52502        52503        52490        52499
    14.63300        52509        52505        52497        52507        52495
    14.65000        52486        52483        52485        52493        52495
    14.66700        52505        52506        52495        52487        52495
    14.68300        52487        52497        52489        52487        52499
    14.70000        52485        52498        52486        52490        52494
    14.71700        52495        52491        52497        52486        52483
    14.73300        52489        52465        52478        52486        52483
    14.75000        52499        52486        52501        52494        52501
    14.76700        52501        52503        52513        52505        52503
    14.78300        52514        52506        52509        52509        52497
    14.80000        52507        52502        52509        52511        52494
    14.81700        52495        52498        52490        52493        52498
    14.83300        52483        52483        52483        52479        52463
    14.85000        52463        52463        52463        52463        52457
    14.86700        52462        52454        52473        52459        52467
    14.88300        52462        52463        52453        52463        52465
    14.90000        52474        52477        52470        52483        52483
    14.91700        52482        52481        52477        52486        52470
    14.93300        52483        52482        52483        52483        52481
    14.95000        52483        52474        52477        52479        52482
    14.96700        52479        52489        52483        52485        52485
    14.98300        52481        52482        52475        52487        52486
    15.00000        52483        52482        52485        52502        52498
    15.01700        52493        52498        52494        52498        52498
    15.03300        52497        52495        52506        52513        52494
    15.05000        52511        52515        52497        52503        52506
    15.06700        52511        52506        52509        52514        52503
    15.08300        52489        52494        52511        52507        52506
    15.10000        52513        52509        52505        52489        52501
    15.11700        52499        52502        52498        52505        52498
    15.13300        52494        52502        52502        52495        52503
    15.15000        52511        52511        52502        52503        52498
    15.16700        52502        52503        52503        52505        52515
    15.18300        52513        52521        52509        52518        52521
    15.20000        52526        52534        52533        52529        52518
    15.21700        52503        52502        52498        52510        52507
    15.23300        52503        52502        52497        52471        52495
    15.25000        52473        52485        52486        52493        52483
    15.26700        52478        52466        52485        52473        52471
    15.28300        52485        52473        52475        52470        52471
    15.30000        52465        52463        52478        52458        52467
    15.31700        52457        52467        52462        52466        52458
    15.33300        52455        52450        52450        52450        52451
    15.35000        52446        52457        52450        52450        52451
    15.36700        52457        52461        52453        52459        52462
    15.38300        52463        52466        52465        52473        52459
    15.40000        52470        52467        52463        52462        52477
    15.41700        52461        52469        52469        52463        52477
    15.43300        52471        52471        52461        52469        52466
    15.45000        52462        52462        52461        52465        52466
    15.46700        52458        52462        52463        52470        52467
    15.48300        52469        52466        52481        52471        52475
    15.50000        52475        52486        52487        52479        52486
    15.51700        52493        52501        52510        52505        52509
    15.53300        52515        52513        52517        52510        52523
    15.55000        52522        52518        52530        52523        52529
    15.56700        52529        52527        52523        52514        52518
    15.58300        52518        52517        52497        52506        52499
    15.60000        52486        52507        52502        52506        52493
    15.61700        52505        52507        52501        52498        52499
    15.63300        52501        52501        52491        52494        52502
    15.65000        52502        52499        52506        52510        52502
    15.66700        52510        52507        52506        52505        52522
    15.68300        52510        52517        52515        52511        52511
    15.70000        52499        52507        52499        52506        52502
    15.71700        52502        52495        52483        52479        52481
    15.73300        52474        52478        52471        52477        52481
    15.75000        52471        52473        52467        52463        52461
    15.76700        52461        52462        52461        52455        52461
    15.78300        52457        52461        52459        52462        52463
    15.80000        52466        52462        52462        52462        52467
    15.81700        52466        52458        52465        52470        52474
    15.83300        52467        52478        52466        52469        52473
    15.85000        52475        52470        52483        52467        52475
    15.86700        52465        52473        52466        52465        52467
    15.88300        52465        52481        52459        52474        52473
    15.90000        52466        52483        52471        52475        52463
    15.91700        52475        52469        52482        52463        52479
    15.93300        52469        52471        52457        52461        52469
    15.95000        52461        52457        52462        52462        52467
    15.96700        52462        52455        52465        52462        52462
    15.98300        52459        52463        52459        52451        52443
    16.00000        52447        52458        52449        52453        52459
    16.01700        52454        52461        52461        52453        52455
    16.03300        52450        52463        52462        52455        52458
    16.05000        52454        52455        52459        52449        52465
    16.06700        52461        52473        52465        52462        52465
    16.08300        52466        52462        52481        52475        52470
    16.10000        52474        52473        52469        52477        52475
    16.11700        52474        52479        52483        52473        52471
    16.13300        52483        52473        52470        52466        52485
    16.15000        52467        52463        52470        52471        52470
    16.16700        52475        52481        52459        52465        52465
    16.18300        52466        52458        52462        52455        52466
    16.20000        52455        52455        52454        52457        52463
    16.21700        52458        52454        52459        52455        52463
    16.23300        52459        52463        52470        52466        52453
    16.25000        52478        52459        52457        52469        52453
    16.26700        52463        52455        52458        52465        52470
    16.28300        52481        52462        52469        52463        52477
    16.30000        52465        52470        52493        52481        52485
    16.31700        52481        52487        52482        52466        52501
    16.33300        52483        52481        52486        52483        52485
    16.35000        52481        52483        52483        52503        52494
    16.36700        52491        52485        52501        52475        52493
    16.38300        52487        52489        52477        52497        52467
    16.40000        52481        52483        52483        52483        52482
    16.41700        52485        52483        52479        52486        52483
    16.43300        52485        52483        52481        52478        52481
    16.45000        52467        52479        52469        52479        52465
    16.46700        52471        52479        52482        52475        52485
    16.48300        52467        52470        52467        52470        52469
    16.50000        52473        52465        52461        52466        52463
    16.51700        52466        52469        52474        52467        52478
    16.53300        52467        52467        52465        52465        52469
    16.55000        52467        52465        52475        52463        52457
    16.56700        52457        52458        52462        52459        52461
    16.58300        52458        52458        52462        52466        52462
    16.60000        52477        52469        52473        52465        52463
    16.61700        52477        52465        52471        52478        52461
    16.63300        52467        52462        52481        52462        52473
    16.65000        52467        52475        52475        52466        52467
    16.66700        52474        52463        52466        52469        52461
    16.68300        52467        52450        52449        52450        52455
    16.70000        52449        52453        52446        52443        52446
    16.71700        52450        52451        52451        52449        52453
    16.73300        52457        52453        52442        52441        52443
    16.75000        52442        52443        52437        52435        52441
    16.76700        52435        52433        52433        52430        52434
    16.78300        52423        52426        52423        52425        52435
    16.80000        52418        52423        52422        52421        52435
    16.81700        52430        52433        52430        52433        52430
    16.83300        52433        52439        52451        52429        52445
    16.85000        52429        52426        52427        52426        52419
    16.86700        52430        52429        52437        52441        52429
    16.88300        52425        52431        52430        52434        52425
    16.90000        52430        52423        52415        52415        52409
    16.91700        52410        52403        52405        52405        52406
    16.93300        52398        52402        52398        52391        52405
    16.95000        52405        52401        52405        52395        52401
    16.96700        52406        52406        52410        52418        52413
    16.98300        52421        52419        52409        52418        52423
    17.00000        52413        52422        52429        52425        52423
    17.01700        52421        52425        52425        52426        52418
    17.03300        52421        52417        52415        52419        52413
    17.05000        52419        52417        52415        52415        52421
    17.06700        52410        52421        52413        52414        52423
    17.08300        52419        52413        52413        52409        52402
    17.10000        52413        52427        52409        52415        52411
    17.11700        52418        52411        52407        52411        52402
    17.13300        52411        52409        52421        52421        52419
    17.15000        52410        52411        52402        52421        52430
    17.16700        52417        52419        52419        52417        52413
    17.18300        52406        52421        52418        52419        52414
    17.20000        52410        52421        52415        52413        52415
    17.21700        52425        52423        52433        52421        52425
    17.23300        52431        52429        52433        52441        52441
    17.25000        52438        52447        52427        52438        52435
    17.26700        52435        52446        52442        52439        52446
    17.28300        52441        52450        52453        52450        52462
    17.30000        52454        52455        52453        52462        52458
    17.31700        52463        52477        52479        52475        52489
    17.33300        52493        52481        52486        52485        52497
    17.35000        52498        52502        52514        52511        52513
    17.36700        52514        52522        52529        52533        52538
    17.38300        52549        52530        52541        52545        52545
    17.40000        52549        52549        52546        52538        52541
    17.41700        52529        52518        52533        52527        52519
    17.43300        52527        52519        52517        52511        52519
    17.45000        52529        52519        52521        52525        52538
    17.46700        52529        52533        52535        52527        52530
    17.48300        52527        52533        52539        52530        52527
    17.50000        52531        52519        52527        52537        52534
    17.51700        52539        52529        52535        52529        52541
    17.53300        52541        52535        52529        52533        52535
    17.55000        52535        52530        52535        52535        52526
    17.56700        52523        52535        52538        52537        52529
    17.58300        52529        52535        52539        52542        52542
    17.60000        52529        52526        52527        52537        52542
    17.61700        52545        52535        52534        52531        52534
    17.63300        52527        52538        52535        52547        52550
    17.65000        52550        52537        52543        52543        52539
    17.66700        52541        52542        52555        52543        52546
    17.68300        52547        52538        52559        52541        52551
    17.70000        52554        52555        52559        52547        52550
    17.71700        52555        52549        52549        52559        52547
    17.73300        52551        52538        52533        52538        52539
    17.75000        52542        52543        52539        52538        52535
    17.76700        52535        52541        52541        52541        52537
    17.78300        52538        52537        52542        52527        52533
    17.80000        52538        52531        52510        52519        52523
    17.81700        52514        52507        52510        52502        52503
    17.83300        52505        52491        52499        52481        52475
    17.85000        52491        52489        52491        52493        52483
    17.86700        52486        52479        52481        52466        52477
    17.88300        52469        52483        52483        52482        52463
    17.90000        52469        52477        52483        52482        52485
    17.91700        52471        52475        52473        52470        52467
    17.93300        52462        52466        52467        52474        52479
    17.95000        52471        52470        52485        52469        52483
    17.96700        52483        52483        52485        52479        52485
    17.98300        52481        52487        52487        52495        52487
    18.00000        52495        52487        52485        52482        52486
    18.01700        52481        52482        52483        52477        52470
    18.03300        52457        52450        52454        52465        52457
    18.05000        52451        52451        52441        52434        52438
    18.06700        52427        52426        52434        52433        52427
    18.08300        52427        52414        52417        52410        52415
    18.10000        52405        52409        52409        52398        52398
    18.11700        52395        52398        52385        52382        52379
    18.13300        52394        52387        52385        52381        52381
    18.15000        52378        52387        52395        52379        52393
    18.16700        52379        52378        52378        52382        52397
    18.18300        52387        52387        52379        52383        52382
    18.20000        52382        52386        52387        52390        52378
    18.21700        52389        52386        52385        52375        52379
    18.23300        52375        52381        52378        52377        52369
    18.25000        52373        52370        52379        52383        52383
    18.26700        52391        52382        52389        52387        52390
    18.28300        52399        52406        52402        52403        52403
    18.30000        52415        52409        52417        52431        52425
    18.31700        52423        52435        52430        52435        52439
    18.33300        52435        52439        52445        52453        52451
    18.35000        52450        52446        52457        52455        52459
    18.36700        52459        52463        52467        52475        52462
    18.38300        52458        52471        52471        52461        52491
    18.40000        52479        52479        52483        52474        52481
    18.41700        52466        52471        52469        52469        52477
    18.43300        52465        52458        52467        52450        52458
    18.45000        52454        52455        52443        52446        52451
    18.46700        52454        52450        52447        52437        52447
    18.48300        52451        52449        52441        52435        52438
    18.50000        52433        52429        52447        52453        52447
    18.51700        52438        52443        52451        52450        52458
    18.53300        52459        52457        52459        52454        52457
    18.55000        52445        52459        52455        52461        52450
    18.56700        52451        52458        52457        52449        52449
    18.58300        52438        52446        52454        52445        52443
    18.60000        52441        52442        52438        52429        52434
    18.61700        52434        52426        52425        52421        52422
    18.63300        52422        52427        52423        52421        52418
    18.65000        52422        52415        52417        52422        52422
    18.66700        52422        52425        52429        52419        52407
    18.68300        52413        52411        52410        52410        52413
    18.70000        52405        52405        52401        52407        52402
    18.71700        52413        52414        52411        52422        52419
    18.73300        52419        52417        52410        52425        52430
    18.75000        52429        52435        52433        52437        52431
    18.76700        52434        52443        52441        52441        52434
    18.78300        52431        52415        52411        52411        52414
    18.80000        52425        52417        52417        52402        52405
    18.81700        52415        52413        52405        52409        52415
    18.83300        52418        52410        52419        52407        52413
    18.85000        52414        52419        52419        52414        52398
    18.86700        52397        52399        52402        52414        52403
    18.88300        52407        52401        52398        52403        52395
    18.90000        52406        52399        52402        52406        52409
    18.91700        52399        52391        52394        52387        52391
    18.93300        52393        52407        52395        52399        52395
    18.95000        52414        52410        52415        52417        52414
    18.96700        52411        52410        52403        52409        52411
    18.98300        52410        52410        52425        52414        52409
    19.00000        52418        52407        52419        52418        52430
    19.01700        52426        52425        52433        52422        52411
    19.03300        52418        52422        52429        52419        52414
    19.05000        52414        52409        52411        52413        52411
    19.06700        52415        52415        52425        52414        52415
    19.08300        52422        52417        52422        52425        52414
    19.10000        52418        52403        52409        52407        52406
    19.11700        52410        52415        52406        52415        52413
    19.13300        52395        52397        52389        52387        52389
    19.15000        52399        52391        52394        52395        52389
    19.16700        52394        52393        52393        52382        52386
    19.18300        52382        52374        52378        52366        52365
    19.20000        52367        52374        52373        52359        52359
    19.21700        52355        52343        52349        52338        52347
    19.23300        52346        52337        52335        52322        52338
    19.25000        52330        52327        52334        52333        52335
    19.26700        52337        52334        52326        52327        52335
    19.28300        52342        52337        52331        52333        52330
    19.30000        52341        52335        52335        52345        52346
    19.31700        52341        52338        52331        52334        52337
    19.33300        52335        52339        52341        52345        52329
    19.35000        52339        52337        52342        52339        52335
    19.36700        52342        52339        52338        52335        52333
    19.38300        52337        52335        52333        52335        52334
    19.40000        52333        52338        52335        52335        52339
    19.41700        52334        52339        52341        52349        52354
    19.43300        52346        52350        52358        52350        52359
    19.45000        52347        52355        52357        52366        52363
    19.46700        52367        52379        52379        52377        52381
    19.48300        52374        52389        52397        52395        52394
    19.50000        52394        52401        52410        52409        52413
    19.51700        52401        52414        52422        52423        52418
    19.53300        52438        52425        52437        52435        52435
    19.55000        52445        52442        52441        52443        52439
    19.56700        52447        52450        52458        52450        52447
    19.58300        52454        52465        52455        52454        52463
    19.60000        52459        52450        52458        52474        52458
    19.61700        52457        52454        52442        52442        52447
    19.63300        52453        52441        52449        52437        52439
    19.65000        52434        52425        52427        52437        52430
    19.66700        52418        52419        52422        52419        52417
    19.68300        52421        52421        52423        52417        52413
    19.70000        52409        52414        52413        52411        52423
    19.71700        52425        52418        52418        52413        52421
    19.73300        52426        52426        52419        52425        52431
    19.75000        52422        52421        52418        52415        52414
    19.76700        52434        52431        52423        52429        52423
    19.78300        52419        52434        52430        52434        52430
    19.80000        52445        52435        52443        52450        52453
    19.81700        52449        52455        52451        52451        52467
    19.83300        52473        52466        52467        52478        52485
    19.85000        52498        52499        52490        52498        52509
    19.86700        52510        52511        52517        52507        52514
    19.88300        52518        52507        52513        52511        52505
    19.90000        52503        52517        52515        52514        52506
    19.91700        52514        52509        52510        52526        52521
    19.93300        52514        52515        52514        52515        52530
    19.95000        52525        52526        52539        52534        52543
    19.96700        52546        52534        52547        52558        52553
    19.98000        52553        52553        52558        52563        52559
##END= 
