##TITLE=  Vapour of Benzene
##JCAMP-DX= 4.24
##DATA TYPE= UV/VIS SPECTRUM
##ORIGIN= Exported PE IR WinLab Data File
##OWNER= Dr R.Lancashire
##$URL= http://wwwchem.uwimona.edu.jm:1104/spectra
##SPECTROMETER/DATASYSTEM= PERKIN-ELMER LAMBDA 19 UV/VIS/NIR UV
##DATE= 96/04/24
##TIME= 15:38:00
##NPOINTS=  4001
##XUNITS= NM     
##YUNITS= ABSORBANCE    
##RESOLUTION= 1.000000
##FIRSTX=  270
##LASTX=  230
##DELTAX= -.009999
##XFACTOR= 1.0
##YFACTOR=  4.6566E-10
##FIRSTY=  .16786
##MAXY=  .97604                                 
##MINY=  .16753                                 
##XYDATA= (X++(Y..Y))
 270    360478304 361095008 360057440 361957728 360400992 362636384
 269.94 360122720 363274336 360547168 362007392 359771744 363008352
 269.88 360764000 362194272 361489760 362164320 361579872 362125664
 269.82 361945184 361889120 363012704 361378144 364067168 361661792
 269.76 363377248 361719904 363306336 360510816 363903584 362191968
 269.7  363979104 362939232 364831584 363341152 364135264 363738464
 269.64 364264544 365993056 364708960 365187680 363970400 365799776
 269.58 363585888 366824288 365084512 367947616 366051168 367943008
 269.52 365546592 368340064 366291808 368381280 368338272 369817952
 269.46 369899360 370135904 370140000 369852256 372439904 370425440
 269.4  372289888 372098400 374658400 372276832 374799680 371804512
 269.34 375122016 373782112 375510880 374868576 377119584 375465824
 269.28 376440672 375830848 376977472 378323808 377293408 379000384
 269.22 377615424 379518016 377136224 379636320 378053472 380578912
 269.16 378835040 380748384 378906208 381888864 379554656 380544608
 269.1  380164160 381377856 381053536 381061984 380870752 380271936
 269.04 381959488 378614112 381521472 380445536 382451808 380020320
 268.98 383969856 379758432 381903712 380033600 381360448 379400032
 268.92 381461600 380771936 380927040 380359744 380857920 380980544
 268.86 380744000 380525376 380600416 383907392 379659872 381873472
 268.8  379954272 381644096 379062880 382178624 379822688 382582624
 268.74 380542272 381216608 379865952 380917824 380259168 380359744
 268.68 381467968 380946016 381562176 380033600 381246784 380016192
 268.62 382554432 380166240 382642752 380714048 382765152 380499520
 268.56 382079808 380256864 382350656 381193056 382172224 382447168
 268.5  382333248 382879072 382028384 383591776 383390016 385833536
 268.44 383963456 386353472 384425024 386714176 385391168 387811904
 268.38 386463040 389935424 389239616 391397696 390393152 393513024
 268.32 392856128 393966144 395605056 396530240 399464000 397831744
 268.26 399976768 399784000 403202368 399932224 404795968 404424256
 268.2  407429184 406144320 409013824 408193344 410819360 410487104
 268.14 411869760 412975680 413972256 414845984 414588736 416343072
 268.08 415758880 419351584 417987872 420116256 419422496 422295840
 268.02 419892768 422592032 421065504 423197728 423025952 423607840
 267.96 423017248 424598048 423579936 422517024 423612192 423579936
 267.9  423923744 422283040 423161376 420914976 422690848 419871520
 267.84 420556320 418243616 420298784 417530400 418127904 415870496
 267.78 416955168 414929952 414352192 413055520 413860672 413327936
 267.72 411148352 411476800 409026368 410650176 408171808 408972864
 267.66 407083040 408435744 405732640 407304224 404441664 405553984
 267.6  403932480 404325952 402257728 404053024 402923328 402131264
 267.54 401825856 401244224 401830464 401448000 402208576 400211008
 267.48 404141376 400404544 401795904 401008192 402873920 400292928
 267.42 403226176 402517312 404109120 404121408 405161280 405895456
 267.36 407896896 408683072 409539872 411917088 411455264 413903136
 267.3  413691168 416873504 416821792 421855520 421730848 424832288
 267.24 426588704 430116896 430535712 434461184 436194592 440429088
 267.18 443882240 445928960 449160704 452150272 455942656 456926208
 267.12 463072256 463329792 469789696 470498272 475314912 476367328
 267.06 482025696 481837024 486374624 487665120 492864224 494057920
 267    498097888 498522816 502444224 504980416 505886656 509629376
 266.94 510256832 513190080 513660352 516089280 515440576 519705792
 266.88 517908160 521590976 520360640 522409152 520916928 522701248
 266.82 521500864 521492416 520085440 519744448 517809344 517038528
 266.76 515756224 511343552 510056640 504054976 504649664 499927008
 266.7  498093536 491661536 490903776 484323808 480767200 477172704
 266.64 474769376 469819904 466239744 461502208 458979328 455622656
 266.58 450007040 447032576 442724608 441930496 436404768 435457824
 266.52 428192800 427539744 421705504 420777504 416555552 416216352
 266.46 411354176 409370432 404579136 404106560 400874816 398392128
 266.4  395764032 394120768 393702208 389467200 389338176 387014976
 266.34 386477888 382971200 383591776 381128512 383664992 380359744
 266.28 380703296 379066944 380071744 378693728 380029024 379709280
 266.22 381040448 381639744 381761856 383228992 382799424 385919552
 266.16 385711424 388210752 387146048 390347840 388737088 390946880
 266.1  389239360 393075264 392016448 394840384 394586688 396652864
 266.04 396860992 397777984 398688576 399169344 400778304 400311872
 265.98 403258656 402158912 403932480 403088960 405650464 402640192
 265.92 407984928 406659904 407925056 406659904 409073952 408086080
 265.86 409198144 409082656 409432096 411039008 409243456 409835808
 265.8  408932416 409997088 407025184 409934880 407344928 409162016
 265.74 406217536 407510304 403990848 405841728 402801216 403238976
 265.68 402766656 402466112 401510208 400194112 398722880 397913408
 265.62 398349376 396008256 396620864 394728512 395920448 392469568
 265.56 393635392 390070848 391881024 389087296 389813056 387377472
 265.5  388700736 386359872 385028416 384182336 383963200 383340608
 265.44 381566816 381942592 379988320 380714048 377509952 378946912
 265.38 376694112 378130784 375676224 377192032 374224736 377405024
 265.32 374462816 374215776 373676640 373939040 373436256 373187168
 265.26 373103200 373221728 374258496 371106656 373664096 373002336
 265.2  375087968 372164704 374899040 372422752 375081056 373185376
 265.14 374864224 372942688 375635264 374542176 374847584 374475616
 265.08 375515232 376479328 375714656 376425824 376376160 379535200
 265.02 376578144 378557760 377480288 379230272 377525088 380636736
 264.96 379483456 381465920 380282464 380804416 380293184 382354528
 264.9  382166112 382878816 384506688 384001856 385401920 383989312
 264.84 385120832 384613984 388172352 385977408 388771648 387334720
 264.78 389572416 388226112 389877312 388514112 390903872 389845312
 264.72 391172416 391152960 391230528 392037952 391288384 392213824
 264.66 391724352 394691904 392023104 394092864 392907584 394440768
 264.6  392205120 395076672 393092160 395286848 394058560 395308352
 264.54 394170432 395413568 395035712 394823232 395688256 394754624
 264.48 396848192 394277696 395304000 394589248 396897344 393363008
 264.42 396601152 394668352 396719680 394582336 396455488 394853184
 264.36 396326208 395244352 395617344 396335168 395830336 395724864
 264.3  395115328 395946304 393583936 395841088 394363456 396013120
 264.24 394952000 397799488 393815872 395952448 394436672 396459584
 264.18 395594048 396158784 395361856 396824896 396199744 395248192
 264.12 396680768 396171584 398345280 397019968 399367232 397507392
 264.06 400071232 397894208 400367936 398942016 402691392 400694080
 264    403230784 401731648 403827520 403640640 404252480 404220736
 263.94 405957696 406677312 406535456 407800128 407049024 409823296
 263.88 407755296 410847552 410360096 414287648 411745568 415043872
 263.82 414255648 416817696 415801664 417968928 417506848 420640032
 263.76 421535520 421438752 422049056 423386656 424954400 425252640
 263.7  427894560 427097376 431268128 428362528 430597920 429511712
 263.64 432648736 431403552 434433312 433024544 435058464 434295840
 263.58 435232544 435296768 436217888 436491040 436303872 439830048
 263.52 437397024 438803200 437453088 439147008 436907296 441401888
 263.46 438330912 440841728 439082784 440534304 438603808 440828448
 263.4  438747936 440064000 440742656 439868672 440027424 440124448
 263.34 440622336 438354720 440109344 438511392 440639776 438193696
 263.28 439250208 437695488 439554816 436501504 438481408 437744896
 263.22 439297568 437772576 438951968 438741280 438425600 438880800
 263.16 438101024 439748640 438556672 440313120 438442752 439937312
 263.1  437993760 441638432 439890176 441412608 440525856 443312896
 263.04 441294880 443500064 442838528 444333312 445220096 444833824
 262.98 446714880 446422816 447898112 447479296 449328128 447844608
 262.92 452023296 450807808 453355008 452611584 457446144 454194432
 262.86 456930304 456855552 459737088 459647232 460836608 461547264
 262.8  462988800 464369152 464328704 466660608 467508736 470129120
 262.74 470203904 474355168 472405216 476330464 475431168 478119648
 262.68 477853408 481935584 481278432 483673312 484454624 485459680
 262.62 487755488 489011424 490721248 492290784 495226592 494384608
 262.56 496916416 496832992 499764192 499057632 503051968 502117568
 262.5  506067136 505046976 507022528 507026912 509539264 509200320
 262.44 511487168 512225984 514253248 514819776 514852544 516488640
 262.38 516617408 519022784 518524608 521668288 520657088 524206784
 262.32 522480064 524853184 522817216 526929856 525600448 528113088
 262.26 528001216 529742752 529706656 530556864 530928288 531735744
 262.2  534387616 532768928 536638368 534585536 536904576 535427488
 262.14 538747008 537373056 542002816 541244544 543100544 543288960
 262.08 546858624 546037888 548979840 550236544 551494528 554913664
 262.02 554548352 556906112 557810816 561454464 559337600 564334464
 261.96 565599104 569237376 568848512 572840832 573012544 577760320
 261.9  578432832 581662528 583363392 587394112 589455424 591358528
 261.84 595166016 596280384 601657664 602894400 608263744 609614144
 261.78 615343680 615652928 620267584 621079872 628265024 628866368
 261.72 634963008 635944256 642846784 643926592 648485632 651814400
 261.66 655372544 660395776 663219712 668169472 671929856 677601280
 261.6  682239744 686066944 689968640 697162752 700577216 707940800
 261.54 710848704 718996160 721689024 728037056 733571008 738220736
 261.48 744001472 747847616 753220224 757971072 763743168 766324352
 261.42 771624576 776039552 782125952 782812544 792060032 791222400
 261.36 797690496 799645056 804714880 806315136 811728768 813828736
 261.3  817647488 820440896 825401920 827177536 830694976 833792064
 261.24 837017152 841765696 842345280 846262080 846638400 850756928
 261.18 850295360 854974784 854551360 857764416 857244480 859471424
 261.12 857347648 859825728 859085120 859078464 859439168 858597440
 261.06 858827072 857167424 857974592 856452160 858419264 855526464
 261    858415168 857489472 859301952 857409856 859576640 857317696
 260.94 860942656 860513088 862031424 863274560 865426752 866820160
 260.88 867947584 870550336 871452224 875592448 875867648 879902784
 260.82 881448768 885247808 885217536 890698240 892274176 898497536
 260.76 900954368 905433856 908124928 914004736 916364800 921155840
 260.7  926923776 929286400 937268224 938588864 944829632 948748800
 260.64 957336256 959995328 969856448 974305728 982303424 986859968
 260.58 999541184 1002377920 1014016896 1018870656 1028669312 1038887296
 260.52 1049888640 1058877760 1067296320 1079244544 1089030912 1103508992
 260.46 1118036736 1127241216 1139750144 1153659264 1164969984 1178739328
 260.4  1187261056 1200257408 1208447872 1219881088 1230601088 1239328896
 260.34 1247401088 1253298048 1263318400 1269015424 1275490304 1279598464
 260.28 1285220352 1288315008 1294181632 1294459136 1299934976 1300437504
 260.22 1305576576 1305037056 1310146304 1308071680 1310734592 1309534208
 260.16 1309626368 1307861504 1307500544 1305737472 1300426752 1298036480
 260.1  1291944064 1290292992 1281960576 1277388544 1268502400 1264488320
 260.04 1254586624 1246464896 1234348672 1225206912 1208050304 1203496064
 259.98 1187031168 1179641472 1165197824 1152226816 1141225472 1131686144
 259.92 1122767872 1112637952 1103217152 1095870208 1087935744 1080118784
 259.86 1073225024 1065913408 1061641536 1052556160 1051924608 1046160512
 259.8  1044389248 1039567744 1035986048 1034710400 1033567616 1031798400
 259.74 1031392128 1032017536 1030348672 1032004224 1031102592 1033265024
 259.68 1032382336 1038249344 1039266944 1043459456 1046894976 1052276544
 259.62 1054847040 1061901440 1066828160 1075286784 1081701376 1088442368
 259.56 1095842304 1103829248 1114929408 1120499968 1133640448 1139694080
 259.5  1154810624 1165071104 1179383936 1188463616 1202535808 1212715136
 259.44 1229886336 1242844288 1266165888 1275247232 1296683776 1309392384
 259.38 1331024128 1347709952 1363545600 1382063104 1398723456 1417479680
 259.32 1437644416 1450235008 1464988032 1479245440 1492873344 1506711680
 259.26 1518314624 1530142592 1535462144 1547148544 1551218176 1557883904
 259.2  1560613120 1563042304 1561839616 1563471616 1560505856 1555932160
 259.14 1549884416 1539929088 1533844992 1523743104 1514556416 1498883968
 259.08 1483688832 1468501376 1450067328 1435200640 1415658112 1391894528
 259.02 1371001600 1348890880 1330566912 1306113024 1280536832 1253506432
 258.96 1218081408 1203219072 1170699392 1146800128 1109730304 1082412032
 258.9  1052405568 1028613504 1000769472 974454208 941545920 924375040
 258.84 895390208 877072192 849998912 831401536 807717504 791568256
 258.78 774841472 751728000 737107904 719883200 699615232 687662336
 258.72 671584000 658104064 646336320 631512128 617486912 604836160
 258.66 596542272 583574080 576246656 564538496 554913664 546796160
 258.6  535779232 531660736 522898880 518586816 510155712 505937888
 258.54 498864576 496821984 489975776 487274208 480402144 481257184
 258.48 475478240 475439584 472886240 472847328 470835712 470674432
 258.42 471030752 471670528 472036064 470828800 473114112 472149728
 258.36 473716960 472302336 474200288 471477728 475098080 474193920
 258.3  476004576 474374144 476878560 474868448 476738528 475862752
 258.24 477509600 477960672 477808352 478752992 478628832 479330784
 258.18 478321376 480859872 479618272 481805024 480810464 482646496
 258.12 480739552 483696352 481955296 483155424 482844128 484604896
 258.06 483805920 484077024 483818976 483952096 485526240 484121568
 258    484888800 484847584 486737376 484059616 486165984 484113376
 257.94 486164192 484370912 485517792 484415712 486737632 484647904
 257.88 485717472 485266400 486621408 486572256 486093280 487360224
 257.82 487143392 488373728 486430176 488573664 487993824 490807008
 257.76 490042336 493083104 490839264 494876384 493364704 494854880
 257.7  494461664 497455808 497408192 498677440 499682528 501484224
 257.64 502942144 503013344 505323968 506790336 509891776 509079744
 257.58 514487488 512395456 516393920 516338624 519771840 519439552
 257.52 524576192 525131968 527054496 528482240 531531968 533176768
 257.46 536161440 537443968 539861888 543757440 544354432 547555968
 257.4  548131968 552405376 551580544 557445504 557709440 561409920
 257.34 562322304 565358976 566243712 569769600 571243072 574369600
 257.28 576551488 578479936 580852864 581950592 584941696 584909696
 257.22 589371968 588078912 592679232 592335424 595797312 594880320
 257.16 598021952 596946496 600564800 600753728 602654272 602718528
 257.1  604464704 604857408 604894016 606687040 606637888 609150016
 257.04 607265088 609929792 608933440 610904896 607831616 610879296
 256.98 609176128 611894848 610737216 612304704 610939456 612878400
 256.92 611149632 611308608 611183680 610701120 611246400 609208384
 256.86 609388608 607733056 609139264 605261376 607007040 605114944
 256.8  606311488 602879552 604011584 601737280 602772032 601168448
 256.74 600736320 600448832 600283456 600463424 599894848 600195136
 256.68 598374464 601069376 600107072 601606464 600729920 604404288
 256.62 601279808 604137792 603021632 606616384 606135360 608785216
 256.56 609734208 612646720 613432384 614295616 617117504 619631936
 256.5  622426176 624161344 627064640 628190016 632804672 633305344
 256.44 638422592 639315968 646078464 645960256 651762944 653055488
 256.38 658896640 662504448 666518016 668723712 674762240 679881984
 256.32 684554752 688254720 694160896 698565120 703304448 710625280
 256.26 714690496 722852800 724442304 732158144 737172416 743412928
 256.2  747557568 753353920 757955776 765263552 770138496 774585792
 256.14 779070080 784341888 788772224 792186496 799273088 800660864
 256.08 807854720 807044992 812024960 813408384 819936064 820284544
 256.02 825307200 825974848 830650432 832196160 836259648 837038912
 255.96 840451136 842830912 844713792 848740672 849099072 851944256
 255.9  851983424 854809152 853471552 858331200 856348736 858833984
 255.84 857774912 859871040 857334848 858786368 856853824 857470016
 255.78 856855872 854824256 852558656 851676480 850370368 847080512
 255.72 848014656 844666432 845435712 842293824 842867264 839850048
 255.66 842327872 838974016 839487040 838043968 839347520 837545536
 255.6  838512192 838398272 839618112 840736832 840453184 842268224
 255.54 842972480 845360448 845566528 847894080 847746368 852245312
 255.48 853308224 857375552 858644800 864167744 864660032 868725056
 255.42 872579648 877495360 881240320 884674624 891507712 895838976
 255.36 902560768 905706496 912946176 917187328 925500160 931027712
 255.3  941809856 944479680 959028672 960173248 969136832 975835072
 255.24 987272128 994705088 1003975552 1011257472 1019300224 1028858240
 255.18 1038977664 1046570880 1056743296 1065767232 1074814208 1088794880
 255.12 1095623680 1105609216 1111996160 1123824128 1132974848 1143052800
 255.06 1152652032 1160299392 1169696768 1177949440 1187230848 1194407552
 255    1200972672 1209468032 1217600384 1222058624 1231612544 1234391936
 254.94 1241003648 1242820480 1251552128 1253222784 1259708544 1261690496
 254.88 1266541568 1267398400 1271568768 1272952192 1276349312 1279158016
 254.82 1281340032 1282192256 1282952704 1284919808 1284399872 1286768768
 254.76 1285535744 1288351488 1286541184 1288501888 1286508928 1288505984
 254.7  1286051712 1288868992 1286837632 1288443776 1287515904 1288046208
 254.64 1287108096 1287056384 1286657024 1286977024 1286727680 1285501952
 254.58 1288007680 1286601344 1288630528 1285898752 1289612032 1288888320
 254.52 1293724416 1293891840 1298571008 1298126848 1305995008 1306662912
 254.46 1311771904 1315976704 1323952128 1332194560 1337827328 1345287424
 254.4  1351968512 1363139328 1373190144 1382958848 1395469824 1405868160
 254.34 1416070656 1432402560 1442308736 1455818112 1466004096 1479096960
 254.28 1489701760 1504542592 1520053888 1527248128 1540848000 1551072000
 254.22 1567294208 1576672000 1588928256 1598980352 1611963904 1620300544
 254.16 1636653184 1641421312 1654924416 1662708864 1677352576 1684048256
 254.1  1697734528 1703843968 1712498304 1722426240 1730251392 1738047104
 254.04 1746458624 1751211008 1757329280 1762433664 1765251456 1769644800
 253.98 1771139584 1775827584 1773634944 1775816960 1771766656 1771352064
 253.92 1764495232 1761003264 1750599296 1748730752 1738236032 1727807616
 253.86 1717581440 1707820928 1701284480 1688991872 1680816512 1670978944
 253.8  1660892032 1655321728 1646877568 1638100864 1632124672 1622514432
 253.74 1616770176 1608444160 1605809408 1598726912 1590899456 1587347200
 253.68 1583323136 1579872000 1576188928 1573485568 1568784384 1569474048
 253.62 1563984896 1564291840 1561820416 1562827264 1558904320 1561401600
 253.56 1561059840 1563648000 1564379904 1567678720 1568896256 1573826560
 253.5  1576827136 1580402432 1584817664 1590433280 1596806912 1600606208
 253.44 1608811520 1611575296 1623811456 1631918336 1642911360 1651728768
 253.38 1666239360 1676888704 1691970432 1703453312 1727116160 1737589632
 253.32 1758396544 1772500736 1793192192 1811069952 1828361472 1846342144
 253.26 1863493888 1882323456 1903160192 1918355840 1938284416 1956632448
 253.2  1973920128 1990872064 2007658752 2023715584 2035352576 2051710464
 253.14 2060871424 2072890880 2082178560 2088507392 2093167104 2096006400
 253.08 2096049152 2093663488 2088022016 2080348672 2073595392 2060920832
 253.02 2048662784 2029799424 2012771840 1996762752 1970984320 1954049152
 252.96 1930641536 1903147136 1877723520 1851610112 1826548992 1797171456
 252.9  1767093760 1738564224 1682910592 1676107136 1636945280 1608500224
 252.84 1570865152 1542063744 1504035968 1474900864 1446786432 1420180864
 252.78 1375234560 1361902592 1330010112 1309255168 1277931904 1252793472
 252.72 1221268352 1200562048 1179442048 1154004992 1134774272 1109657344
 252.66 1083034880 1065913408 1043437696 1026635648 1006234752 987845568
 252.6  967827136 946976960 933396480 920608256 907186176 893120512
 252.54 879629888 870120768 855021888 847395904 834455616 826380864
 252.48 814325120 807889024 798527872 792414336 782263168 776583040
 252.42 765585792 762707904 753714624 749782464 742461632 738287040
 252.36 733796544 728975296 725063104 720424128 715824320 711224512
 252.3  707878336 703109312 701294528 694935808 691881984 687155200
 252.24 686257920 680156928 679450368 675045888 671472128 668053760
 252.18 664420096 662508800 659429120 657984256 653792000 652613376
 252.12 648977408 648006720 644002048 643424000 637082944 638910272
 252.06 634965056 634851648 631043584 631185984 626862656 626561856
 252    624644672 623922752 622782784 620252736 619376448 618045504
 251.94 618451008 615322176 617201216 615328320 617231424 615644224
 251.88 617933632 615324224 618532416 617214272 619602240 619219776
 251.82 622801984 622984256 624479296 626074688 627876416 631323136
 251.76 631636544 635951168 638542848 642625280 644195072 648274944
 251.7  649928960 655331840 656994048 662498048 663955968 670106880
 251.64 672110080 676078848 680049408 683373568 687969536 690557184
 251.58 695333056 699331520 704041216 704758272 710187456 712755648
 251.52 719099328 720802240 727038144 726688704 733055680 733959872
 251.46 738102208 739440064 743836352 745055936 747789504 749752256
 251.4  752677504 753836736 753263808 756334528 757296256 760161408
 251.34 758638464 762102720 760010944 762089408 759749056 760745152
 251.28 757453504 759480512 755973568 755772032 754109376 754105536
 251.22 752649408 751017152 749885632 748586176 748891584 745345728
 251.16 744883904 742648768 743050176 739154624 740084416 736268224
 251.1  736545472 733717184 733343424 729480128 729460672 727180480
 251.04 725715648 725120704 722462144 721160640 718463680 717301696
 250.98 714230976 714789312 711612864 711705600 707498432 708877248
 250.92 704593152 704358592 699664896 701303040 697783296 697562048
 250.86 695715072 695161600 693610752 692066816 691643648 690713792
 250.8  691688704 689137920 691278592 688525568 690052352 686530304
 250.74 689689600 686775296 689715136 688265728 690065152 688358144
 250.68 691639296 690348800 691149824 692996352 693982464 695940800
 250.62 695378176 697323520 696761280 700302080 699909632 703388352
 250.56 703927040 708226752 708039360 713060800 713298880 717497024
 250.5  719232704 722481344 727960000 729641152 733517248 736201920
 250.44 742124480 744306368 752739520 755346304 761177216 764980096
 250.38 772373952 775112064 784283776 787911296 797686400 800082816
 250.32 809699456 813727872 821798464 827222848 832917824 839360320
 250.26 845497664 852698432 859454272 865130048 871471680 878379840
 250.2  882952256 890399488 895031552 902917120 905678592 913160960
 250.14 917412608 923971072 929092864 933123584 937964224 943910336
 250.08 949959936 953342144 957089216 961051840 965859776 967928000
 250.02 974022336 974797760 980340160 979762880 984242368 983681728
 249.96 986698944 985672384 987766464 986179264 987862976 986793664
 249.9  985528512 984644032 982663872 982393280 980024768 979489984
 249.84 975585728 975701952 971260864 970109632 966115520 966228928
 249.78 959001024 960248512 956533184 955764672 951574464 951325888
 249.72 947084480 945885888 943390976 940895168 938516160 937403584
 249.66 936220160 933555392 932610304 928749568 930027008 926418944
 249.6  927370752 923870208 925446400 921381376 923111936 921033472
 249.54 923107840 922877952 924014080 924604416 926273536 928167360
 249.48 929402112 932447232 933881600 939473920 940405696 945390080
 249.42 948531904 953831616 956421824 963093952 966787520 973981632
 249.36 976981440 984498112 989166528 996676288 1005079488 1008147840
 249.3  1017208448 1022259072 1031619968 1036986496 1045396032 1050399616
 249.24 1059438720 1064620352 1076768768 1081540352 1092000512 1094736896
 249.18 1106352384 1111800576 1120650240 1126173440 1132294144 1140432896
 249.12 1146684160 1153766656 1159925504 1164420608 1170237824 1175924352
 249.06 1179190528 1184578944 1187651456 1195795072 1196263040 1200699520
 249    1201698688 1206574976 1207093120 1210455936 1211308160 1212805504
 248.94 1213977472 1213679488 1214817408 1214890112 1216054400 1214941824
 248.88 1217774720 1213979776 1215993984 1213612928 1213891712 1211209600
 248.82 1213047936 1210135680 1209908352 1206766464 1206115712 1204380544
 248.76 1202806144 1201698688 1201105792 1202173056 1199226752 1200248704
 248.7  1198793088 1201122944 1199729024 1202396288 1201569408 1206865536
 248.64 1207567488 1211961216 1215294080 1219803520 1223744640 1229757312
 248.58 1236242816 1244757632 1251646592 1258224768 1265199360 1273417728
 248.52 1284808064 1289860864 1302471168 1308073728 1321622272 1330044672
 248.46 1341198848 1347402752 1359783424 1367926272 1382645248 1391855872
 248.4  1406937344 1411855488 1425730176 1435318656 1447484032 1457370752
 248.34 1466401408 1479844480 1489452416 1501841280 1514373760 1523470592
 248.28 1533381248 1544668416 1554763520 1566532096 1574443008 1586812928
 248.22 1593055488 1601647360 1606717952 1614877952 1622499712 1626040704
 248.16 1631007744 1633185408 1636775936 1635869824 1637132544 1634950272
 248.1  1634639616 1628808704 1627082496 1619091456 1614203648 1608923392
 248.04 1604501504 1598250240 1592825600 1585352192 1580458496 1575031552
 247.98 1568848896 1563759360 1554656000 1551783168 1544228096 1541618944
 247.92 1531515008 1529603584 1522216832 1520861312 1515052288 1512748160
 247.86 1507913984 1507457024 1501944192 1500739328 1497589120 1496659072
 247.8  1494198400 1493775232 1493534592 1492381568 1493478784 1492289408
 247.74 1495231104 1495315072 1500305792 1500522368 1507426944 1507020928
 247.68 1513742336 1517339392 1523352448 1528072576 1536477952 1544571648
 247.62 1554531584 1565039360 1582416640 1588996864 1604591616 1616817408
 247.56 1632824448 1649890432 1662846720 1681544576 1694343552 1713821056
 247.5  1734366080 1747624576 1766286336 1784219904 1805451776 1823813120
 247.44 1844188160 1864621696 1881979520 1899704704 1915592320 1934038656
 247.38 1956914048 1965151616 1982296832 1990425728 2002438144 2007944704
 247.32 2018329600 2020951552 2025324288 2023738880 2024523264 2019671808
 247.26 2014023808 2009241984 2000299648 1991758848 1977813120 1963190912
 247.2  1947239808 1933448320 1916317824 1898285568 1872053760 1856684800
 247.14 1825266944 1808791296 1775078272 1753968128 1718842240 1697111680
 247.08 1671479168 1641901952 1615502848 1589905152 1552440064 1534353920
 247.02 1501289344 1481293952 1452638336 1426153088 1398414080 1369790464
 246.96 1346925824 1321111552 1301575680 1273267584 1249948032 1227502464
 246.9  1200295808 1186311808 1163999488 1143203328 1123132928 1105991424
 246.84 1090583552 1072929088 1055452736 1040326016 1018876544 1014659456
 246.78 995617408 987755648 972968128 963868864 950699008 942108608
 246.72 932874496 926099200 914565120 910085376 897630208 893242880
 246.66 883462976 874370880 865943872 856811072 853241664 844627776
 246.6  839841600 831921216 824942400 818312768 813098624 807116160
 246.54 801515136 794312832 789210240 781932160 777264000 772285824
 246.48 765768320 760167616 754727808 751874176 745021376 743376576
 246.42 736427200 734545856 728309952 726720704 721729984 720318912
 246.36 714636544 713058496 706871552 706033856 702088960 699623360
 246.3  695780096 694076928 691924992 688499712 687075840 684258816
 246.24 683358720 680592640 680382208 677942528 679841280 676873216
 246.18 678617088 676559872 678137856 676862720 678376448 678112512
 246.12 680397312 681140480 682450176 684132096 686133248 688836864
 246.06 690080256 694611136 695275264 700553728 700315072 705286656
 246    706815424 712266176 714494912 718787776 721807296 726555072
 245.94 729471680 734069440 736783808 741465024 745949376 748332736
 245.88 756401344 756501952 761264768 762336960 768536192 769204352
 245.82 776033152 777579136 781591168 783063936 790144640 788855936
 245.76 792132736 793559168 796833664 798586240 799348352 800059008
 245.7  801047424 802380672 800523136 802797440 800989056 803063936
 245.64 800052864 800819584 797568128 798517120 794351488 793444992
 245.58 790110080 789892992 786424704 784820864 781567360 780085632
 245.52 777308800 774568320 772850816 769842048 768570752 763994496
 245.46 763564736 758602432 758739584 753742464 752773824 749861760
 245.4  749451904 745670080 743632064 739960000 738306240 735907264
 245.34 733229760 731299008 728348352 727755712 723067584 723536064
 245.28 719522240 719930304 716185024 716597184 712800960 713846464
 245.22 709396992 709029568 706815424 707430144 704307392 704176320
 245.16 702717888 701640384 701710848 700352000 700366848 699612928
 245.1  701266624 699088896 701840064 698992384 700641472 699069888
 245.04 700933312 699336192 702917824 701539008 702724800 702475456
 244.98 704266496 704174272 705522624 706377664 706858752 709746880
 244.92 708797632 711745984 711905472 714916032 714153664 718931648
 244.86 718804672 722140352 723175104 726684096 727452864 731485632
 244.8  733051584 736558272 739270592 743028672 745577408 748775616
 244.74 753735872 754837696 762400960 763148160 769865856 772098944
 244.68 779372672 782136448 787915136 789558400 796999040 800430720
 244.62 806933376 810641792 818600832 820823424 826578496 832282176
 244.56 837249344 843442496 846975552 853707584 857418560 864290368
 244.5  868604480 874145600 877416000 884167424 887850560 893912576
 244.44 896612352 903312384 905107712 909832192 914045440 916375296
 244.38 921974272 923206656 927273728 928878336 933754816 933469696
 244.32 938541824 939518656 943326720 943487168 948446144 947073728
 244.26 950069184 949212864 951216064 950617280 952165312 952143552
 244.2  951942400 952227520 950179264 952352256 950462144 951087552
 244.14 949158912 950724288 945873344 947301056 943865600 944511680
 244.08 941391616 941509632 938539456 938769664 935275456 933398528
 244.02 931375616 930013952 928156672 926137856 925081344 922891008
 243.96 922918656 919139584 919592448 916899328 918409216 915894272
 243.9  917498880 914739200 916085504 914264576 915017984 914036992
 243.84 915550720 914693888 914683136 915072000 914915072 916470272
 243.78 915604480 917328896 917749760 921101824 919650560 923075584
 243.72 922628864 926026240 926163456 929425920 930452224 934100736
 243.66 935475136 937961920 939583168 943461824 945443776 948106432
 243.6  951263680 952538816 960463552 957998016 961888960 962439104
 243.54 967953344 967438528 973762496 974275520 978010560 978669504
 243.48 983441600 984291776 987504064 988533184 991749824 995211904
 243.42 997129408 999847808 1000763008 1004690560 1004621952 1010540416
 243.36 1011358336 1014987904 1016501888 1020990080 1021322880 1026444416
 243.3  1027411072 1032343680 1034557824 1037046656 1039486080 1042800000
 243.24 1044850816 1045260928 1049540672 1049813376 1054355520 1054797888
 243.18 1058502208 1057978176 1062165568 1062168128 1066533760 1066995520
 243.12 1073306944 1073551424 1078424576 1079833088 1085062144 1088861184
 243.06 1092288512 1097461504 1101260800 1107718144 1113125632 1117654528
 243    1121955840 1128643584 1133264640 1140138752 1144998400 1151973376
 242.94 1153558400 1160728704 1163097472 1169159808 1173299968 1175688448
 242.88 1180470528 1182796288 1185940224 1187509888 1190170496 1190656128
 242.82 1194439808 1194798208 1198035072 1198038912 1204007040 1201378432
 242.76 1204837760 1204851072 1209358208 1210099584 1213157248 1214198656
 242.7  1216359552 1217690496 1218051712 1219576192 1220422016 1221790336
 242.64 1220774528 1222471040 1219118720 1220486528 1217974400 1216644992
 242.58 1211982720 1212598912 1204833408 1203822464 1197989760 1195509376
 242.52 1187372416 1183874304 1177094912 1173435264 1169571968 1163430400
 242.46 1159480704 1154110336 1149671424 1143656192 1140355456 1135676160
 242.4  1133812480 1128327680 1126268160 1121459968 1120209920 1115574016
 242.34 1116280320 1112734720 1112436224 1110331392 1108542976 1108280832
 242.28 1107557120 1108252928 1106820608 1108276224 1107252480 1110065408
 242.22 1108761856 1111656704 1111523328 1115569664 1115796992 1120332544
 242.16 1123130624 1128655872 1131439616 1137082880 1141618432 1148674944
 242.1  1159373824 1162506624 1175419904 1180242944 1192575616 1200828800
 242.04 1214896512 1222522752 1236564864 1246318464 1259278976 1271166976
 241.98 1292592896 1296870400 1315516928 1324547328 1341194240 1354034432
 241.92 1371489024 1387603456 1401023360 1415014016 1424110976 1442860416
 241.86 1457175424 1469240448 1481888896 1493536896 1502554240 1515350528
 241.8  1522298112 1530731392 1535176448 1543693312 1545666688 1550387200
 241.74 1551151616 1551838720 1551626240 1549590016 1545890560 1539851520
 241.68 1535365376 1526988160 1519804416 1510261632 1498231168 1486484608
 241.62 1471142784 1457613440 1440137856 1424185984 1405616896 1388997248
 241.56 1374641408 1354850560 1337799424 1319470592 1294877440 1283925632
 241.5  1259428992 1248204416 1222853248 1208145024 1185534336 1168891008
 241.44 1148892160 1134632704 1115247360 1096890624 1075679744 1065030720
 241.38 1038960256 1031325824 1015320448 1001473984 985431744 969147840
 241.32 957596352 945454336 935402496 921136128 907543040 897320960
 241.26 886755072 877078784 867326784 855080000 847705408 837569088
 241.2  831479360 822450752 815244416 806538368 797763456 793617024
 241.14 786618240 783244416 774235776 769416576 763210880 760062336
 241.08 753068224 750128320 742409920 741791936 734099392 731172288
 241.02 723656128 721697472 715356352 712787648 709261504 704900032
 240.96 702479616 698356992 694439680 691420416 689461760 685660672
 240.9  684415488 680279296 679469568 674983424 674051328 669672960
 240.84 670873344 666230272 665669888 663103744 661995264 660445184
 240.78 659382016 658490880 657107968 657408256 655819520 656607488
 240.72 655007744 656517376 653701632 656422912 653807104 657711360
 240.66 657092608 659352320 658763520 662637568 661542400 663947520
 240.6  665096704 666840064 670420224 670592000 673132288 673804800
 240.54 678333440 677242880 682418176 683981312 687956736 687977728
 240.48 695247360 692835584 697867008 697964032 701418752 702787264
 240.42 707073216 708733120 710571712 712772800 714119104 717308096
 240.36 718720960 720931264 722376384 726057152 724192960 727293888
 240.3  726570432 729583296 728599744 730669760 729918144 732040128
 240.24 730470080 730837440 730182336 730549440 730227648 728917440
 240.18 728238784 726819520 727259328 723342784 723170752 720329664
 240.12 720576704 717486272 718354368 714666688 714978240 711716288
 240.06 710779840 707530432 708516544 706433472 704225728 703171328
 240    701644288 701996992 699426240 699048192 696920000 698665728
 239.94 695144192 696872640 693591552 694106816 690550464 691929600
 239.88 687496960 690104064 687713536 687570176 685694976 685542912
 239.82 684756736 683652608 684153600 682624000 683623168 681266944
 239.76 682035712 680350208 681949696 678336000 681357312 679331840
 239.7  681243648 679879680 680951552 679624192 681333504 681026816
 239.64 681806080 682568448 682441728 683248896 682444032 683981568
 239.58 681829632 685085184 683049216 684516352 683882752 686732288
 239.52 683820544 686150144 683958016 686279168 685802496 686588416
 239.46 686397184 687108352 687002880 686835456 688040192 688306176
 239.4  690808576 689713152 692051712 691233536 694126080 692169984
 239.34 695681024 695640064 699361728 699007232 702922496 701897920
 239.28 705842944 706918592 708608768 710972864 712818176 715931584
 239.22 716711104 719827136 721368768 725183168 725601728 729714112
 239.16 731659968 736734144 736397504 740797376 741647808 745564864
 239.1  747615680 750097856 752372672 755157696 757487296 758237376
 239.04 761958592 762897280 766992256 767846784 770647680 771574912
 238.98 778541696 776359552 780040320 780676224 784468352 785413760
 238.92 788381312 789106816 791836800 793298816 793438848 795126400
 238.86 797312384 798987904 799017856 801678464 800836736 803441280
 238.8  801925760 804403584 803331968 806626176 804566656 806613632
 238.74 805170304 806692992 805702784 806031232 804380288 805451648
 238.68 805372288 803570304 804107136 802432384 803166592 801173888
 238.62 802591104 800477824 803813248 800785024 801901952 800115072
 238.56 801721216 798504832 800838784 799767168 800675712 800604800
 238.5  799719808 799683712 798680704 799161728 797291136 797877120
 238.44 795992192 797566080 794636928 795794304 792794240 795403648
 238.38 791963264 794611072 792970368 793837696 792107392 793567360
 238.32 792427136 792151936 792240512 791301760 792620672 791430784
 238.26 792012416 790056576 791634560 788987008 792478592 791157632
 238.2  793090944 791344512 794310784 791967616 793006720 792309120
 238.14 794097536 794929280 795072896 796266624 797177472 798768768
 238.08 796977536 801154432 802234496 805355136 805765248 809087360
 238.02 809738112 814887488 815497856 819077440 820735296 825775424
 237.96 827609152 830903872 834105408 836497728 840964416 841932864
 237.9  846337600 849137728 854167104 855155008 860137024 860891200
 237.84 867606080 868173120 874269760 875442176 882928640 883826176
 237.78 888657920 891561216 896618496 899992576 903013888 907351808
 237.72 911904512 916162816 919763968 922955520 925571072 931107328
 237.66 932483840 937117696 937869824 943072960 942037952 944722112
 237.6  944520192 946998720 945823936 946962176 945617600 944651264
 237.54 944020160 941024192 939941824 937193152 935737024 930926592
 237.48 930759424 927224576 925306624 920700672 919877888 915095808
 237.42 915484160 910993664 909014016 904871168 900509952 898757632
 237.36 894857472 892227328 888447232 887025920 879423744 876500800
 237.3  871596352 869656896 863066432 861449280 854147648 852848960
 237.24 844975936 843077696 836235840 834240576 827703936 824283008
 237.18 820984384 816577664 813094272 808924288 804274816 800753024
 237.12 798981248 794939520 793550464 789122176 789070720 785327488
 237.06 785791104 782259072 783837312 781949568 782653824 781730176
 237    783259776 782192256 782557312 783418496 784216960 786195328
 236.94 785020544 788168576 789403520 792665472 791885696 796198272
 236.88 797714304 803503744 805138048 810381888 813101120 819111744
 236.82 821997888 827680064 834124608 838102080 846988096 848987456
 236.76 856123456 861440832 870264640 874748992 883265600 889186048
 236.7  897265152 901974272 916051456 916974592 926582272 931266304
 236.64 940429312 947007424 955672256 961216704 966710464 973556160
 236.58 979664064 986209472 991902080 996882560 1001166528 1008203904
 236.52 1010173056 1014613888 1015215744 1020109440 1020038784 1023433856
 236.46 1023193216 1024748416 1022602880 1021967232 1019181696 1017474432
 236.4  1014060160 1009689984 1005629056 999824512 996399040 987221184
 236.34 980658112 972622272 966480576 958893248 952264384 942403008
 236.28 935243200 925321984 918582784 907641856 900836352 891922176
 236.22 879056448 872991808 861275712 856226624 843833408 835000896
 236.16 825272896 819717184 808715904 802724224 789311104 784558720
 236.1  773793152 770308224 757483456 752282048 743483840 738151360
 236.04 731565504 723982528 718646208 710934528 703957248 699009792
 235.98 693063168 688106752 683465984 676718848 674124288 666391552
 235.92 665122304 659862784 658113024 652428352 649812992 645861440
 235.86 643831808 641201664 637797440 636288320 632141312 630959936
 235.8  627389248 626040128 621507136 621760320 616726336 617491264
 235.74 614123840 615103040 609951296 610827328 607808320 608287040
 235.68 606891072 605478208 603455040 602918464 601554752 598924096
 235.62 599581248 598015296 599048768 596370752 597523776 594766400
 235.56 596793408 593587776 594925376 593787200 595543872 593769792
 235.5  594625088 593909568 595578176 595543872 595636032 596542784
 235.44 596963392 598509632 597738560 599711808 598516288 601455936
 235.38 600002112 603154496 602604864 606590272 604576320 607529024
 235.32 607215424 609405760 610281792 611117632 612300608 613673024
 235.26 615305024 615575360 616885824 616913472 620136768 619720000
 235.2  622632512 621481024 626008384 623813440 626033728 625187904
 235.14 628703040 627846464 629444160 629725248 631046208 631541824
 235.08 630537216 631883584 632068160 633176640 632540480 634527296
 235.02 631795520 633304832 631737664 633210688 630756160 633388864
 234.96 630631488 631724864 629837120 631074112 629701632 629881856
 234.9  628755008 629046848 629867072 628254272 628874816 628200768
 234.84 628683840 626796096 628855616 627257664 630279744 627754048
 234.78 628756800 627472704 629385792 627575872 628907072 628473408
 234.72 628814912 628638528 628795712 628475456 627760448 629323776
 234.66 628071488 630122816 628376640 630335296 627157056 629158464
 234.6  627002176 629646144 627945024 629274368 628537856 629755200
 234.54 628574528 629102656 628759104 629225024 629551168 628982592
 234.48 629819968 628567872 629922880 627350080 629856576 626937920
 234.42 629113408 627384384 628192320 626308416 628529472 625889856
 234.36 625900608 624406336 623866944 624358976 622460480 621830976
 234.3  621077568 620974144 616567872 618975040 617353536 619076160
 234.24 616060992 617443904 614390080 616966976 614654528 615085888
 234.18 614072384 615152448 614054976 613838400 613473088 612773184
 234.12 613922112 613060672 613378880 613090880 615455296 612927808
 234.06 614821696 612738880 615680832 614089536 616222016 614806592
 234    617809216 616743744 617038144 617779008 618573376 618608192
 233.94 619451712 620691008 620821824 622554688 621234496 623465536
 233.88 622584896 625157696 624388672 627696192 626323776 629867072
 233.82 628593728 630777664 630431552 633410624 633176384 634737472
 233.76 635600960 636502592 637729280 636859136 638414080 638551616
 233.7  641411584 639679232 643752704 641240128 643394048 642150400
 233.64 644785920 642895936 646469120 645405952 646235456 645594944
 233.58 646482496 647109120 646829824 647392768 647053120 650494016
 233.52 647530048 648537088 647717120 649670912 646942016 650656768
 233.46 648788224 651108096 649595712 650588416 649344768 651453440
 233.4  650629120 651154944 651425536 651853120 651923712 650861056
 233.34 651464192 649527360 652003328 649196288 650916864 648861440
 233.28 650843648 647525888 649112576 646351424 647826496 646842944
 233.22 647048960 646146816 645889600 645133568 643986688 644027712
 233.16 642988032 644057920 641697600 642633792 640303936 641946432
 233.1  638068480 640857856 638987520 640718400 638834752 639599680
 233.04 638553664 639880768 639021824 638538560 638856192 639453760
 232.98 640681792 640222272 641424896 640879168 644330496 642419264
 232.92 645792832 646211584 650147584 648947712 653601024 652756992
 232.86 656167168 656788224 659553536 661351424 664102144 666277376
 232.8  667770368 670389760 671998720 675758848 677186560 680116224
 232.74 681904640 688530176 687361536 690937088 691925184 696829696
 232.68 697341184 701799168 704120320 707122880 709328128 711005376
 232.62 714653888 717237184 719827392 721328320 725204416 725696192
 232.56 730164928 729001408 731855296 731247552 735804608 734283968
 232.5  736506816 735402944 736704192 734520256 735291072 733225664
 232.44 732710080 732203200 728990656 727583680 725013696 723595968
 232.38 719387072 719051968 714926528 715042752 710245056 708896448
 232.32 703598848 703536064 697583872 697076736 692249344 690073856
 232.26 685869056 683588352 681082624 677712896 674770944 670643456
 232.2  667853568 664231168 662858752 657634048 654979840 650124032
 232.14 649802240 643623936 643357440 638601024 635970112 633112128
 232.08 630481216 627910720 625808192 623540800 620437312 619121216
 232.02 616265024 615377728 612419136 612454976 607477568 610619200
 231.96 607492160 607868480 606440000 609066816 606180416 607805760
 231.9  606380352 606979136 608076608 607894080 608576832 609180736
 231.84 610666560 609214784 612416576 612016960 615520064 615068736
 231.78 618502720 617531968 621953344 621507136 624844096 625271616
 231.72 629676096 629991488 633073408 633910784 636131392 639395328
 231.66 640363776 643465280 646353216 649503744 650682624 653229376
 231.6  654490368 659100672 659366912 662929664 663794944 668231936
 231.54 668446464 671435776 672299264 675380736 676443648 677526272
 231.48 679065856 680644352 682555648 681797376 683908608 683352320
 231.42 685860608 684670720 686407936 684254464 686951424 683446784
 231.36 683266304 681125120 682063872 679254784 678552576 676110848
 231.3  674208256 672741376 668423168 667909632 665186560 664261376
 231.24 658995200 659882752 654320384 653192704 648239104 646928640
 231.18 639039232 641145664 635682368 634188032 629926976 628409152
 231.12 623199296 620568384 617132864 614519104 613224000 608089408
 231.06 604969024 601720128 599810880 594732096 594536768 589397632
 231    588766528 584411200 582860928 578239552 577734528 574187392
 230.94 571837824 570248832 568079744 566428032 563295360 561613696
 230.88 558542720 559174272 555731584 556547968 552963712 553835392
 230.82 550333056 551290496 547423360 548999296 545791104 546323584
 230.76 544390784 544642432 543184000 542784640 541914752 541143936
 230.7  541532288 539632256 540823936 538880384 540091520 536777888
 230.64 539230592 536039328 538618496 536857504 538390656 536664480
 230.58 538476672 536602016 536984192 536668320 536810400 537705856
 230.52 537241984 537688448 536737440 538635392 535768992 538811776
 230.46 537857920 540216448 538087808 541150592 538571136 540857984
 230.4  539995264 541276800 540807040 542449536 542438528 542754688
 230.34 543340672 542767488 544783744 544145792 545099648 545230464
 230.28 548267136 545073792 547781504 546841472 549175424 547743104
 230.22 549911936 549020544 551462784 550530432 550867584 551348608
 230.16 552364160 552950912 552862592 554527104 553790336 555304064
 230.1  553522304 555205504 553934208 556839808 554537600 557789312
 230.04 555186304 557488256 556199808 556708736 555998336
##END= 