##TITLE= [Fe(H2O)6]2+
##JCAMP-DX= 4.24 $$Exported PE UV WinLab Data File
##DATA TYPE= UV/VIS SPECTRUM
##ORIGIN= Chem. Dept. UWI, JAMAICA
##OWNER= public domain
##DATE= 97/07/09
##TIME= 10:48:37.00
##SPECTROMETER/DATA SYSTEM= PERKIN-ELMER LAMBDA 19 UV/VIS/NIR UV
##RESOLUTION= 1.000000
##DELTAX= -1.000000
##XUNITS= NANOMETERS
##YUNITS= ABSORBANCE
##XFACTOR= 1.00
##YFACTOR= .00000011920928955078
##FIRSTX= 1000.00
##LASTX= 350.00
##NPOINTS= 651
##FIRSTY= 1.04
##MINY= .019330
##MAXY= 1.04
##$ASSIGNMENT TYPE= CHIME
##$CHIME TARGET= MOLDISPLAY
##PEAK ASSIGNMENT= (XYWA)
(944, -1, 40, <select *; label off; spacefill off; wireframe on; select atomno=1; 
label "5Eg - 5T2g"; spacefill 40>)
(390, -1, 40, <select *; label off; spacefill off; wireframe on; select atomno=1; 
label "charge transfer"; spacefill 40>)
(675, -1, 325, <select *; label off; spacefill off; wireframe on>)
##XYDATA= (X++(Y..Y))
  1000.000000  5944227  5956600  5966432  5977857  5987193  
  995.000000   5995481  6005002  6014616  6021276  6028197  
  990.000000   6040503  6043489  6053732  6057263  6068177  
  985.000000   6072883  6081582  6083159  6092898  6098535  
  980.000000   6105045  6109147  6113752  6119238  6123785  
  975.000000   6123869  6132627  6133994  6140462  6142987  
  970.000000   6147022  6146736  6148750  6154001  6146669  
  965.000000   6150805  6147810  6144429  6142659  6137777  
  960.000000   6133658  6130530  6127317  6123483  6126084  
  955.000000   6128055  6136167  6142022  6150620  6157340  
  950.000000   6163648  6168639  6172229  6171659  6170610  
  945.000000   6167976  6168631  6170266  6173714  6166844  
  940.000000   6161064  6156786  6154630  6144237  6140722  
  935.000000   6132920  6128793  6117108  6109382  6102075  
  930.000000   6089794  6081498  6068823  6057842  6044328  
  925.000000   6032391  6019741  6005128  5989895  5973956  
  920.000000   5957926  5942197  5924329  5908349  5888644  
  915.000000   5867522  5849150  5828473  5807056  5785196  
  910.000000   5765357  5743051  5721568  5697786  5672201  
  905.000000   5647681  5625108  5598440  5574885  5545995  
  900.000000   5518564  5492282  5462788  5436137  5408111  
  895.000000   5378541  5350506  5322019  5292407  5261520  
  890.000000   5230725  5200426  5168423  5137536  5106901  
  885.000000   5072760  5039750  5007136  4974470  4941772  
  880.000000   4906841  4875476  4841695  4806262  4772246  
  875.000000   4738625  4704349  4668244  4633641  4598979  
  870.000000   4563185  4529186  4493744  4457648  4421510  
  865.000000   4385976  4349687  4312542  4276261  4238294  
  860.000000   4191352  4153787  4119604  4085462  4043284  
  855.000000   4006223  3976058  3929862  3890905  3852301  
  850.000000   3818176  3774564  3739332  3703286  3661947  
  845.000000   3624500  3585669  3547870  3508586  3471919  
  840.000000   3434741  3393150  3355192  3318878  3282538  
  835.000000   3242776  3203677  3169846  3129262  3097217  
  830.000000   3058671  3026644  2990908  2958117  2919085  
  825.000000   2887225  2850911  2815939  2782317  2750004  
  820.000000   2711442  2679389  2646078  2612666  2579875  
  815.000000   2546958  2513295  2481032  2448199  2418763  
  810.000000   2387323  2356050  2325541  2295258  2262081  
  805.000000   2235934  2206120  2174378  2147451  2119273  
  800.000000   2090366  2063942  2034255  2006732  1980224  
  795.000000   1954001  1927308  1903015  1876649  1853623  
  790.000000   1827744  1803518  1779182  1756424  1734748  
  785.000000   1710832  1690791  1666473  1644579  1624329  
  780.000000   1602292  1582083  1561892  1543093  1524638  
  775.000000   1504346  1487292  1468309  1449644  1432749  
  770.000000   1414219  1398465  1380077  1364768  1350315  
  765.000000   1333126  1318748  1303531  1290034  1275631  
  760.000000   1261177  1247563  1234535  1221684  1209940  
  755.000000   1196182  1183608  1173156  1161319  1148871  
  750.000000   1138586  1126003  1117078  1106433  1096517  
  745.000000   1084035  1075252  1063953  1054985  1046152  
  740.000000   1035952  1025927  1016322  1006952  999285   
  735.000000   991785   983313   976309   968935   958365   
  730.000000   953080   945648   939088   931899   923485   
  725.000000   917479   910483   903286   895157   889059   
  720.000000   881047   873338   867290   859413   851444   
  715.000000   845354   838761   830900   824953   816782   
  710.000000   810273   803126   796021   791172   784226   
  705.000000   777322   769789   763699   755889   750697   
  700.000000   743801   736302   729398   723124   717033   
  695.000000   708670   702035   695861   689292   681709   
  690.000000   674503   667381   660486   654236   647542   
  685.000000   640118   633802   625556   618299   612008   
  680.000000   605087   598402   591431   583638   576776   
  675.000000   570115   561819   555972   549546   543029   
  670.000000   537182   530924   524490   517292   510565   
  665.000000   503778   498435   491472   484845   478352   
  660.000000   471717   466298   460812   454764   448397   
  655.000000   441946   436569   431888   426888   420614   
  650.000000   414700   409079   404029   399239   392688   
  645.000000   387973   382722   377312   372522   367111   
  640.000000   363420   358555   352825   347406   343690   
  635.000000   338766   334504   330000   324916   320185   
  630.000000   316813   313130   308181   304280   300422   
  625.000000   296773   293140   288325   285247   282378   
  620.000000   279878   276246   273091   269610   265760   
  615.000000   262153   259879   256499   254267   250325   
  610.000000   249561   245619   242842   240267   237541   
  605.000000   234772   232390   232180   228514   225771   
  600.000000   224756   221913   219916   217735   216124   
  595.000000   214631   213750   211116   209011   206528   
  590.000000   205890   203399   200832   200270   200295   
  585.000000   198894   195749   194281   192158   191017   
  580.000000   189725   188912   188031   187108   184449   
  575.000000   184944   182797   181656   180792   180154   
  570.000000   178862   177075   176530   175515   173921   
  565.000000   172772   172680   171170   170222   169098   
  560.000000   168519   168175   166850   166699   166489   
  555.000000   166112   164811   165071   164568   163721   
  550.000000   163259   163251   163704   163117   162496   
  545.000000   162303   162504   162152   162303   162379   
  540.000000   162882   162647   164098   163402   165172   
  535.000000   164870   165591   167009   166581   168058   
  530.000000   168326   170163   170616   173183   173871   
  525.000000   175549   176170   177596   180389   182117   
  520.000000   183451   184919   187075   189247   191856   
  515.000000   193702   195639   197326   199423   200824   
  510.000000   201461   204053   203382   204087   206108   
  505.000000   205966   205790   205177   206167   205672   
  500.000000   205781   205781   205177   204095   204154   
  495.000000   202996   201562   200035   200404   199582   
  490.000000   198005   197560   197602   197544   198030   
  485.000000   197619   200018   202527   204347   207862   
  480.000000   211217   215873   220193   224605   229227   
  475.000000   232616   235024   235905   236635   235964   
  470.000000   236056   236031   236593   236618   237792   
  465.000000   238799   239436   242389   243345   245048   
  460.000000   248756   251306   253638   257875   261515   
  455.000000   262799   265877   269426   272387   275029   
  450.000000   277479   276975   277328   276598   276262   
  445.000000   274518   272437   270239   268125   267127   
  440.000000   264644   264720   261926   262220   261163   
  435.000000   261591   260718   261096   262438   262388   
  430.000000   263092   265491   267513   269317   272513   
  425.000000   272957   276992   279039   283552   287444   
  420.000000   290867   294885   298400   303525   309959   
  415.000000   317065   324497   330755   339840   350493   
  410.000000   360107   371280   382823   398208   413349   
  405.000000   429354   447138   467053   488259   510707   
  400.000000   535839   562591   591607   625732   660125   
  395.000000   699090   740597   785157   837167   886735   
  390.000000   939038   995653   1054214  1115794  1178164  
  385.000000   1244979  1312490  1385413  1461690  1543882  
  380.000000   1631182  1725470  1826762  1930630  2041888  
  375.000000   2167566  2295098  2430382  2576100  2728697  
  370.000000   2894901  3069434  3253765  3449321  3654774  
  365.000000   3872920  4102625  4339872  4593669  4858389  
  360.000000   5137570  5434686  5739822  6064411  6398067  
  355.000000   6751035  7115604  7496061  7892078  8301661  
  350.000000   8729472  
##END= 
