##TITLE= KMnO4
##JCAMP-DX= 4.24 $$Exported PE UV WinLab Data File
##DATA TYPE= UV/VIS SPECTRUM
##ORIGIN= Chem. Dept. UWI, JAMAICA
##OWNER= public domain
##DATE= 97/07/11
##TIME= 15:04:30.00
##SPECTROMETER/DATA SYSTEM= PERKIN-ELMER LAMBDA 19 UV/VIS/NIR UV
##RESOLUTION= 1.000000
##DELTAX= -1.000000
##XUNITS= NANOMETERS
##YUNITS= ABSORBANCE
##XFACTOR= 1.00
##YFACTOR= .00000011920928955078
##FIRSTX= 800.00
##LASTX= 250.00
##NPOINTS= 551
##FIRSTY= .22
##MAXY= .010500
##MINY= .34
##XYDATA= (X++(Y..Y))
  800.000000  88307    89171    89104    89331    89456    
  795.000000  90270    89566    90119    89255    89524    
  790.000000  88433    89003    90052    89163    88928    
  785.000000  88332    90161    90018    88081    90379    
  780.000000  90354    93139    89591    93416    93374    
  775.000000  95161    97300    97476    100420   99397    
  770.000000  99405    100630   102979   103281   103247   
  765.000000  104405   103407   103793   106267   105110   
  760.000000  105110   107911   106838   106326   106318   
  755.000000  107584   108431   108171   110512   110839   
  750.000000  110470   108650   110587   112584   114228   
  745.000000  110571   112534   113666   114094   115218   
  740.000000  116048   115335   116568   118104   117080   
  735.000000  118003   118984   120192   120654   121702   
  730.000000  121744   123170   124638   124118   126626   
  725.000000  127339   128086   128229   127834   129210   
  720.000000  130796   132062   133237   133547   136080   
  715.000000  136550   136567   137968   139746   140426   
  710.000000  140719   142774   144352   143731   145073   
  705.000000  147271   149771   149905   152648   153898   
  700.000000  154670   156750   158260   158730   160835   
  695.000000  161498   164375   165457   166841   169635   
  690.000000  171656   174047   175775   178585   179827   
  685.000000  182503   183795   187184   188685   190665   
  680.000000  193098   195094   197653   199825   202535   
  675.000000  203902   206545   207291   209724   211829   
  670.000000  214346   217509   218624   221502   225226   
  665.000000  226115   228095   231492   233078   236224   
  660.000000  238774   241349   242582   246281   249503   
  655.000000  250803   253085   255811   258932   260794   
  650.000000  262086   265357   268033   270692   272160   
  645.000000  274660   277386   280197   282168   284248   
  640.000000  286102   287780   289860   291874   294709   
  635.000000  295883   298694   301051   302309   304448   
  630.000000  306352   309129   310614   312845   315018   
  625.000000  316477   319472   320630   323239   325713   
  620.000000  327525   329572   331359   333548   335872   
  615.000000  339739   340905   343573   346400   350929   
  610.000000  354134   357145   361038   364544   369091   
  605.000000  373335   377286   381573   385012   389819   
  600.000000  394768   398677   403660   409239   414414   
  595.000000  421134   428037   436812   447038   457825   
  590.000000  472262   487974   507276   530110   557004   
  585.000000  589535   626562   667826   716471   771861   
  580.000000  833132   899913   971393   1045028  1118839  
  575.000000  1191283  1259843  1321894  1376403  1421727  
  570.000000  1457395  1482637  1500244  1510059  1514396  
  565.000000  1515889  1516250  1518397  1525771  1536080  
  560.000000  1557958  1588157  1633363  1689927  1760148  
  555.000000  1844353  1938222  2038600  2144104  2245513  
  550.000000  2340305  2420902  2484597  2529250  2551781  
  545.000000  2556060  2541203  2512087  2474900  2429526  
  540.000000  2383506  2341261  2305601  2280385  2268574  
  535.000000  2272525  2294117  2331706  2381593  2441673  
  530.000000  2507817  2572736  2629024  2673047  2697626  
  525.000000  2703565  2686964  2652243  2601174  2537831  
  520.000000  2465991  2392658  2321581  2256461  2201784  
  515.000000  2159815  2131579  2115960  2115389  2124743  
  510.000000  2139783  2157903  2171408  2178044  2171190  
  505.000000  2151737  2118946  2072532  2017947  1956442  
  500.000000  1890365  1824925  1764477  1709565  1663604  
  495.000000  1626887  1599104  1580657  1570130  1562538  
  490.000000  1556783  1548210  1536508  1517583  1491361  
  485.000000  1460734  1422843  1383106  1342631  1300998  
  480.000000  1263618  1230114  1201845  1178642  1160506  
  475.000000  1148032  1136950  1129426  1121406  1111407  
  470.000000  1100477  1086686  1070387  1052687  1033678  
  465.000000  1015173  998236   983238   971284   960865   
  460.000000  953986   948777   945589   943299   941236   
  455.000000  940565   938040   934693   933116   929769   
  450.000000  925725   922697   921246   920700   920952   
  445.000000  922764   925281   928930   932235   936849   
  440.000000  941437   945900   949884   954213   957057   
  435.000000  961410   967022   971628   977063   984219   
  430.000000  992096   996701   1005643  1014150  1019158  
  425.000000  1027949  1036790  1043854  1052997  1060530  
  420.000000  1069414  1078054  1086677  1096962  1106391  
  415.000000  1116558  1125995  1137370  1146958  1158257  
  410.000000  1169456  1181779  1193104  1206676  1219494  
  405.000000  1233738  1247529  1262863  1278517  1293264  
  400.000000  1310074  1329922  1346649  1365272  1381923  
  395.000000  1403557  1422331  1441776  1464341  1486168  
  390.000000  1508574  1531785  1557949  1582151  1607912  
  385.000000  1634370  1660576  1685112  1710748  1738237  
  380.000000  1765551  1796983  1826007  1854629  1885466  
  375.000000  1917234  1947617  1975450  2004358  2031822  
  370.000000  2059781  2089963  2118468  2149489  2178379  
  365.000000  2206095  2233694  2259925  2283858  2307245  
  360.000000  2330792  2355127  2377047  2400292  2419577  
  355.000000  2438795  2454130  2468709  2482995  2496442  
  350.000000  2508119  2519963  2528369  2537898  2546161  
  345.000000  2552671  2556697  2558534  2561705  2564490  
  340.000000  2569465  2575748  2583709  2594303  2605485  
  335.000000  2616156  2623907  2627103  2628420  2630953  
  330.000000  2642899  2663769  2691594  2721315  2740156  
  325.000000  2749375  2746070  2745676  2755507  2781638  
  320.000000  2819110  2857102  2876278  2876093  2862034  
  315.000000  2852991  2857899  2880472  2908641  2926962  
  310.000000  2922717  2899288  2869341  2846700  2839184  
  305.000000  2836315  2829436  2802853  2758519  2709554  
  300.000000  2666915  2633403  2602835  2566428  2515299  
  295.000000  2454650  2396684  2344004  2297691  2248181  
  290.000000  2193848  2136277  2080249  2031084  1988679  
  285.000000  1947407  1904013  1862708  1822954  1791295  
  280.000000  1763454  1738355  1717467  1699885  1686354  
  275.000000  1677194  1669895  1665122  1661213  1656415  
  270.000000  1653663  1653370  1654779  1654653  1656172  
  265.000000  1657019  1661490  1667144  1676665  1685347  
  260.000000  1695841  1707602  1722786  1738883  1758647  
  255.000000  1780952  1803610  1828834  1856341  1887806  
  250.000000  1922552  
##END= 
