##TITLE= [Mn(H2O)6]2+
##JCAMP-DX= 4.24 $$Exported PE UV WinLab Data File
##DATA TYPE= UV/VIS SPECTRUM
##ORIGIN= Chem. Dept. UWI, JAMAICA
##OWNER= public domain
##DATE= 97/07/11
##TIME= 14:16:43.00
##SPECTROMETER/DATA SYSTEM= PERKIN-ELMER LAMBDA 19 UV/VIS/NIR UV
##RESOLUTION= 1.000000
##DELTAX= -1.000000
##XUNITS= NANOMETERS
##YUNITS= ABSORBANCE
##XFACTOR= 1.00
##YFACTOR= .00000011920928955078
##FIRSTX= 800.00
##LASTX= 250.00
##NPOINTS= 551
##FIRSTY= .04
##MAXY= .012134
##MINY= .05
##$ASSIGNMENT TYPE= CHIME
##$CHIME TARGET= MOLDISPLAY
##PEAK ASSIGNMENT= (XYWA)
(531, -1, 40, <select *; label off; spacefill off; wireframe on; select atomno=1; 
label "4T1g - 6A1g"; spacefill 40>)
(434, -1, 20, <select *; label off; spacefill off; wireframe on; select atomno=1; 
label "4T2g - 6A1g"; spacefill 40>)
(401, -1, 10, <select *; label off; spacefill off; wireframe on; select atomno=1; 
label "4A1g/4Eg - 6A1g"; spacefill 40>)
(357, -1, 10, <select *; label off; spacefill off; wireframe on; select atomno=1; 
label "4T2g - 6A1g"; spacefill 40>)
(336, -1, 10, <select *; label off; spacefill off; wireframe on; select atomno=1; 
label "4Eg - 6A1g"; spacefill 40>)
(309, -1, 15, <select *; label off; spacefill off; wireframe on; select atomno=1; 
label "4T1g - 6A1g"; spacefill 40>)
(260, -1, 10, <select *; label off; spacefill off; wireframe on; select atomno=1; 
label "4A2g - 6A1g"; spacefill 40>)
(525, -1, 275, <select *; label off; spacefill off; wireframe on>)
##XYDATA= (X++(Y..Y))
  800.000000  108230  107106  107979  107391  107106  
  795.000000  108633  104657  104539  105646  104699  
  790.000000  105059  104933  104514  102778  104741  
  785.000000  104288  105118  104497  103382  104808  
  780.000000  103591  104908  102023  104371  104304  
  775.000000  106812  106871  104103  107291  106452  
  770.000000  105495  105907  105772  106703  105227  
  765.000000  105395  105823  105336  107307  106309  
  760.000000  105495  107408  105680  105143  104329  
  755.000000  105512  106343  105521  106049  107089  
  750.000000  105831  106594  103935  105219  106896  
  745.000000  104212  103977  104153  104103  103264  
  740.000000  104002  102929  103835  102887  101922  
  735.000000  102459  101788  103885  103189  103658  
  730.000000  104606  104984  106443  106829  106720  
  725.000000  107182  107492  108197  106737  107651  
  720.000000  107777  108960  109866  107928  109807  
  715.000000  108767  109757  107811  109547  109958  
  710.000000  109228  110235  110151  108708  108977  
  705.000000  109858  110696  108440  110352  111133  
  700.000000  110428  110814  110470  110906  110654  
  695.000000  110168  110621  110881  111250  110487  
  690.000000  111401  112332  112685  113062  112836  
  685.000000  112886  112877  113356  113221  113599  
  680.000000  113750  114396  112726  112961  113926  
  675.000000  113356  114715  113867  113515  113339  
  670.000000  113901  114698  113649  114631  115847  
  665.000000  114278  114320  115327  114127  115402  
  660.000000  115319  115662  115830  115243  116627  
  655.000000  114941  115344  115579  115721  115889  
  650.000000  114505  115293  115235  115025  115109  
  645.000000  114958  115134  115285  115772  115948  
  640.000000  115268  115386  115964  115402  116074  
  635.000000  115184  117139  116862  117273  117474  
  630.000000  116560  118070  117969  118347  118573  
  625.000000  118506  119588  119538  120427  120561  
  620.000000  120989  121442  121996  121467  122633  
  615.000000  123850  123153  123422  123950  125595  
  610.000000  125351  125880  126534  126878  129017  
  605.000000  129218  129848  131299  130686  132792  
  600.000000  133648  134461  136106  137406  138387  
  595.000000  139092  140132  141919  144343  144444  
  590.000000  146214  146809  149418  151004  152270  
  585.000000  154686  156867  158201  159803  162219  
  580.000000  164434  166405  168863  171019  172923  
  575.000000  175222  177394  178904  182050  183845  
  570.000000  186907  189029  191948  194582  197393  
  565.000000  200194  202636  205437  208893  210278  
  560.000000  214422  215822  219388  221988  223540  
  555.000000  226182  229739  231157  234445  237482  
  550.000000  239755  242372  244822  247104  249058  
  545.000000  251793  253370  254603  256885  258671  
  540.000000  260441  261926  263369  264434  265131  
  535.000000  265919  265726  266943  267060  266381  
  530.000000  266565  266985  266263  265189  264812  
  525.000000  264342  261951  261717  260643  259133  
  520.000000  256465  254150  252338  249368  246617  
  515.000000  244511  242289  238614  236039  232944  
  510.000000  229722  227139  223498  221057  217332  
  505.000000  214019  210378  207342  204154  201050  
  500.000000  197938  194180  191621  187184  184214  
  495.000000  181060  177738  174299  172613  169559  
  490.000000  166221  163662  162614  160005  157203  
  485.000000  156314  153327  152673  151935  150618  
  480.000000  149511  148353  147900  147204  145811  
  475.000000  146231  146080  146398  146675  146986  
  470.000000  148051  148982  150366  151926  153235  
  465.000000  155953  158067  160332  163763  165692  
  460.000000  169098  172051  174852  177646  181161  
  455.000000  184625  188283  191353  195329  198844  
  450.000000  201268  205412  208860  212853  215873  
  445.000000  219170  222106  225788  227919  232096  
  440.000000  234613  236358  239034  239839  240267  
  435.000000  241198  242968  242741  241450  241919  
  430.000000  240057  238614  236274  234965  231157  
  425.000000  228422  225100  220361  217190  211712  
  420.000000  206436  202225  197300  191948  188358  
  415.000000  183442  179240  177101  173645  173678  
  410.000000  175045  181236  192108  206176  224505  
  405.000000  249285  288241  347054  404801  437206  
  400.000000  394038  319892  290716  280926  275767  
  395.000000  256826  212719  177797  165575  161968  
  390.000000  157631  154477  152044  149670  147120  
  385.000000  147061  147715  146382  147053  148739  
  380.000000  147715  149041  151113  152203  152035  
  375.000000  152480  152832  154384  155693  157119  
  370.000000  160902  167764  174483  185808  204104  
  365.000000  224647  250090  269551  285272  298157  
  360.000000  310932  323851  331367  335972  331065  
  355.000000  325982  314204  301722  288568  271867  
  350.000000  256381  243169  232180  223406  220688  
  345.000000  218868  220126  222852  229848  240049  
  340.000000  255660  277688  303316  329597  336459  
  335.000000  321041  295900  274216  257455  244612  
  330.000000  235007  230276  228154  231257  230494  
  325.000000  235309  237926  242733  248219  254200  
  320.000000  258822  262060  265735  272823  277814  
  315.000000  284399  287277  292251  294742  295892  
  310.000000  297712  296420  294751  293954  293442  
  305.000000  289550  288342  285809  281186  275516  
  300.000000  269803  263092  257120  253051  247875  
  295.000000  241559  237507  232684  229169  226400  
  290.000000  225092  223649  221409  220277  220487  
  285.000000  220302  218205  217483  215411  215755  
  280.000000  215386  214430  215680  218876  223330  
  275.000000  230712  241802  259418  277277  292662  
  270.000000  302536  309574  316914  325453  337566  
  265.000000  348815  359704  365014  369787  368780  
  260.000000  369015  368638  368889  367405  365140  
  255.000000  362866  359612  359805  364158  380407  
  250.000000  406101  
##END= 
