##TITLE= [Ni(H2O)6]2+
##JCAMP-DX= 4.24 $$Exported PE UV WinLab Data File
##DATA TYPE= UV/VIS SPECTRUM
##ORIGIN= Chem. Dept. UWI, JAMAICA
##OWNER= public domain
##DATE= 97/07/07
##TIME= 09:56:37.00
##SPECTROMETER/DATA SYSTEM= PERKIN-ELMER LAMBDA 19 UV/VIS/NIR UV
##RESOLUTION= 1.000000
##DELTAX= -1.000000
##XUNITS= NANOMETERS
##YUNITS= ABSORBANCE
##XFACTOR= 1.00
##YFACTOR= .00000011920928955078
##FIRSTX= 1000.00
##LASTX= 350.00
##NPOINTS= 651
##FIRSTY= .05
##MINY= .011701
##MAXY= .51
##$ASSIGNMENT TYPE= CHIME
##$CHIME TARGET= MOLDISPLAY
##PEAK ASSIGNMENT= (XYWA)
(990, -1, 10, <select *; label off; spacefill off; wireframe on; select atomno=1; 
label "3T2g(F) - 3A2g"; spacefill 40>)
(722, -1, 10, <select *; label off; spacefill off; wireframe on; select atomno=1; 
label "1Eg - 3A2g"; spacefill 40>)
(656, -1, 40, <select *; label off; spacefill off; wireframe on; select atomno=1; 
label "3T1g(F) - 3A2g"; spacefill 40>)
(394, -1, 40, <select *; label off; spacefill off; wireframe on; select atomno=1; 
label "3T1g(P) - 3A2g"; spacefill 40>)
(675, -1, 325, <select *; label off; spacefill off; wireframe on>)
##XYDATA= (X++(Y..Y))
  1000.000000  707126   700785   692690   684528   678958   
  995.000000   670502   661971   655931   647114   644086   
  990.000000   637199   631621   625044   619382   611077   
  985.000000   607436   597856   595164   586456   582791   
  980.000000   577288   570476   564906   558547   552021   
  975.000000   546241   541846   534489   534179   525387   
  970.000000   523139   515975   510665   503829   499634   
  965.000000   490147   487647   478990   473646   468462   
  960.000000   460904   454856   449286   441174   434983   
  955.000000   429589   420723   417325   409658   404893   
  950.000000   399399   393795   388510   385071   378268   
  945.000000   376867   368655   366541   359603   355635   
  940.000000   351600   346584   343220   339479   333800   
  935.000000   334202   325344   324698   319590   316242   
  930.000000   313709   310110   305664   304473   298534   
  925.000000   295489   294852   288510   287738   283401   
  920.000000   282764   277789   277839   272488   273771   
  915.000000   268251   267337   265038   264418   260165   
  910.000000   261591   257094   257975   256188   253739   
  905.000000   254326   251172   250535   249469   247842   
  900.000000   248127   248093   245199   247666   243253   
  895.000000   246005   243522   243396   244780   243429   
  890.000000   244235   244210   245199   243731   247221   
  885.000000   243471   249637   246349   249503   249905   
  880.000000   251399   252145   255081   253731   259393   
  875.000000   258772   261977   263839   266523   268016   
  870.000000   272823   272127   276220   278477   281547   
  865.000000   285104   287696   289575   294508   301286   
  860.000000   320856   330243   331451   333741   342188   
  855.000000   346332   345888   351257   360367   360811   
  850.000000   368168   377203   377244   383955   388401   
  845.000000   395121   401026   405346   413148   418407   
  840.000000   426880   433171   437861   445922   455342   
  835.000000   459025   466751   473596   482077   489425   
  830.000000   495390   503510   514172   522124   530269   
  825.000000   539774   549228   556996   567288   578126   
  820.000000   586691   593956   605951   614793   625816   
  815.000000   634817   646477   655520   664789   675627   
  810.000000   689796   699862   711010   721823   732544   
  805.000000   744758   756997   768187   781156   792195   
  800.000000   806464   817160   830900   843886   855429   
  795.000000   869874   883782   895828   911708   925255   
  790.000000   937243   950555   966100   981694   995468   
  785.000000   1009360  1023125  1037403  1052871  1069615  
  780.000000   1085679  1098614  1114771  1129988  1144433  
  775.000000   1159105  1176821  1192089  1208119  1223714  
  770.000000   1239644  1254785  1272334  1288960  1306627  
  765.000000   1321433  1336356  1353108  1369114  1386260  
  760.000000   1402190  1419059  1435803  1452152  1469122  
  755.000000   1484960  1500915  1516527  1530921  1547053  
  750.000000   1562261  1578778  1592720  1606226  1620780  
  745.000000   1635544  1647070  1660114  1673838  1686270  
  740.000000   1699046  1710110  1720747  1731023  1741752  
  735.000000   1750904  1755979  1765802  1773268  1781682  
  730.000000   1786833  1792755  1797662  1802159  1805388  
  725.000000   1806605  1808400  1810698  1811353  1811000  
  720.000000   1811504  1809322  1808089  1806496  1802167  
  715.000000   1798275  1794366  1791455  1786472  1779677  
  710.000000   1774057  1768671  1761424  1755845  1748362  
  705.000000   1741861  1733548  1725931  1718189  1708911  
  700.000000   1702242  1693627  1683368  1675877  1668352  
  695.000000   1659821  1651130  1645216  1637784  1628196  
  690.000000   1620965  1612694  1606033  1598894  1591412  
  685.000000   1584860  1578686  1572445  1567034  1562135  
  680.000000   1557295  1553847  1550995  1546004  1544427  
  675.000000   1542665  1541449  1539906  1539394  1541441  
  670.000000   1541692  1543982  1545568  1548680  1551817  
  665.000000   1553780  1557664  1561078  1564929  1569232  
  660.000000   1572126  1574735  1575943  1578082  1575851  
  655.000000   1572378  1565961  1557052  1545778  1533262  
  650.000000   1517709  1502073  1486789  1468787  1451892  
  645.000000   1433899  1415511  1398709  1380564  1363728  
  640.000000   1345617  1327363  1308455  1289145  1270539  
  635.000000   1249760  1228168  1207054  1184363  1161344  
  630.000000   1137898  1114989  1091249  1068004  1045506  
  625.000000   1023662  1001961  980234   958508   938501   
  620.000000   917035   896499   875394   855697   833610   
  615.000000   813133   792682   773547   753566   732477   
  610.000000   713451   695676   677498   658540   640773   
  605.000000   624549   607831   591993   575878   560468   
  600.000000   545260   530941   515363   501044   486993   
  595.000000   474066   459872   446786   434648   422518   
  590.000000   409591   398166   387453   376791   364737   
  585.000000   354344   344697   334110   323683   315303   
  580.000000   306168   296512   287386   279953   271917   
  575.000000   264124   257002   250241   243530   236509   
  570.000000   229462   224068   218104   212517   207535   
  565.000000   202476   197846   193433   189625   185112   
  560.000000   181203   177243   174551   171312   169819   
  555.000000   165801   163117   161984   158461   158444   
  550.000000   155366   154560   154225   154024   151884   
  545.000000   152002   151364   151281   149485   149511   
  540.000000   149141   148546   147464   146080   145425   
  535.000000   142942   142254   141239   139067   137129   
  530.000000   135686   134445   133052   131802   129487   
  525.000000   128111   127918   125788   123984   122885   
  520.000000   121233   119169   118246   117189   114111   
  515.000000   114094   111602   109799   108851   107358   
  510.000000   106083   104204   103751   102434   101653   
  505.000000   101310   99582    99699    99305    100211   
  500.000000   98155    99338    99540    99380    100857   
  495.000000   101033   102929   104933   105932   107869   
  490.000000   111888   114505   118867   121056   127172   
  485.000000   131567   136324   142707   149225   154510   
  480.000000   161087   169870   177545   185548   192972   
  475.000000   202099   211318   220721   229924   239621   
  470.000000   249100   258437   268671   278947   287772   
  465.000000   297779   307082   316570   324799   334270   
  460.000000   343304   351550   359033   368629   377320   
  455.000000   383578   393476   401865   411252   420219   
  450.000000   429648   441149   452868   466608   478528   
  445.000000   495415   512771   532425   555418   578554   
  440.000000   606547   638944   673044   710734   754111   
  435.000000   801624   853231   908143   969782   1036245  
  430.000000   1107196  1185109  1266663  1352873  1444963  
  425.000000   1541759  1641668  1743849  1852473  1963522  
  420.000000   2079117  2196381  2315802  2434576  2556647  
  415.000000   2675102  2791436  2906435  3017022  3126670  
  410.000000   3235747  3340403  3440571  3538374  3632494  
  405.000000   3724433  3811214  3891794  3969507  4038595  
  400.000000   4102533  4156564  4201401  4239385  4265264  
  395.000000   4280934  4287150  4280682  4262965  4233739  
  390.000000   4192232  4139258  4075354  3999722  3913974  
  385.000000   3819090  3712077  3599250  3479553  3353128  
  380.000000   3222384  3079140  2936441  2796913  2658954  
  375.000000   2520802  2376954  2241713  2108267  1977371  
  370.000000   1852071  1730100  1613742  1503767  1398809  
  365.000000   1299455  1206786  1119527  1040230  964908   
  360.000000   896625   829676   772071   718157   669688   
  355.000000   624784   582505   546543   514205   484744   
  350.000000   455493   
##END= 
