##TITLE= [VO(H2O)5]2+
##JCAMP-DX= 4.24 $$Exported PE UV WinLab Data File
##DATA TYPE= UV/VIS SPECTRUM
##ORIGIN= Chem. Dept. UWI, JAMAICA
##OWNER= public domain
##DATE= 97/07/07
##TIME= 16:42:31.00
##SPECTROMETER/DATA SYSTEM= PERKIN-ELMER LAMBDA 19 UV/VIS/NIR UV
##RESOLUTION= 1.000000
##DELTAX= -1.000000
##XUNITS= NANOMETERS
##YUNITS= ABSORBANCE
##XFACTOR= 1.00
##YFACTOR= .00000011920928955078
##FIRSTX= 1000.00
##LASTX= 350.00
##NPOINTS= 651
##FIRSTY= .02
##MAXY= -.005015
##MINY= .23
##XYDATA= (X++(Y..Y))
  1000.000000  108381   109203   110126   110856   111804   
  995.000000   112861   114589   115109   115570   117198   
  990.000000   118422   120142   121065   122625   123590   
  985.000000   125242   126517   128027   128875   130963   
  980.000000   132322   134361   135057   137062   138689   
  975.000000   140828   142321   144486   145719   148286   
  970.000000   150349   153218   154862   157194   159107   
  965.000000   161187   163754   166112   168293   170977   
  960.000000   173057   175591   178921   182360   185590   
  955.000000   188920   192813   197175   201604   206192   
  950.000000   210924   215386   220017   224689   230066   
  945.000000   235276   239764   244998   250014   255626   
  940.000000   261180   266288   271389   277479   283443   
  935.000000   289156   295019   301009   307032   313533   
  930.000000   320210   326300   332533   339445   346223   
  925.000000   353035   360216   367832   376255   384559   
  920.000000   392495   399952   407972   416444   424724   
  915.000000   432190   439547   446811   455468   464016   
  910.000000   472807   481917   490851   499810   509466   
  905.000000   518693   528667   538062   548255   558002   
  900.000000   568656   578714   589124   599752   611236   
  895.000000   621923   632669   643532   654463   666693   
  890.000000   678706   690517   701875   714072   726521   
  885.000000   739028   750932   763473   776467   788966   
  880.000000   802295   815038   828459   842653   856855   
  875.000000   869211   883539   897439   911842   925843   
  870.000000   940531   954641   968901   983556   999109   
  865.000000   1013596  1028284  1043719  1061033  1050481  
  860.000000   975000   992532   1001214  1009116  1013713  
  855.000000   1030826  1037898  1050749  1058148  1069758  
  850.000000   1080101  1094445  1104260  1114721  1126582  
  845.000000   1137512  1150683  1159256  1175026  1188339  
  840.000000   1202684  1216449  1228361  1242362  1255658  
  835.000000   1270321  1284749  1300218  1315326  1331432  
  830.000000   1346582  1359735  1374474  1388869  1403398  
  825.000000   1418497  1433798  1446683  1461539  1477545  
  820.000000   1491898  1506435  1522088  1535502  1549552  
  815.000000   1562924  1576354  1590581  1602711  1614967  
  810.000000   1633019  1644545  1658193  1669728  1682545  
  805.000000   1697477  1708995  1718138  1729161  1740041  
  800.000000   1752028  1762145  1772597  1781456  1794340  
  795.000000   1801135  1811109  1822929  1830185  1838741  
  790.000000   1849621  1856324  1865904  1872682  1877346  
  785.000000   1885390  1892202  1897311  1903921  1908862  
  780.000000   1915396  1919800  1924381  1930093  1932148  
  775.000000   1936125  1939497  1942550  1945604  1946745  
  770.000000   1948825  1950964  1951518  1952977  1952910  
  765.000000   1955293  1954764  1953976  1951929  1951904  
  760.000000   1950494  1949681  1946678  1946728  1943758  
  755.000000   1941334  1937249  1934355  1930664  1927392  
  750.000000   1922938  1919037  1913853  1908283  1903854  
  745.000000   1897311  1892068  1886447  1879569  1872799  
  740.000000   1866071  1859218  1851777  1843280  1836686  
  735.000000   1828994  1820748  1812191  1803216  1795079  
  730.000000   1786162  1776859  1767354  1756969  1748203  
  725.000000   1738044  1727433  1717744  1707837  1696051  
  720.000000   1685733  1676329  1664988  1654813  1642859  
  715.000000   1632558  1620143  1610135  1600060  1587461  
  710.000000   1578879  1566154  1554955  1543974  1533077  
  705.000000   1521694  1510680  1499330  1487804  1476026  
  700.000000   1465339  1454006  1442967  1431659  1421467  
  695.000000   1409245  1398784  1388802  1377544  1366001  
  690.000000   1357621  1345776  1336708  1325560  1316483  
  685.000000   1304974  1295579  1285982  1276151  1266185  
  680.000000   1256446  1247328  1237471  1228319  1219578  
  675.000000   1210091  1201526  1193708  1185311  1176243  
  670.000000   1169423  1160581  1151723  1144651  1136304  
  665.000000   1128126  1120165  1112766  1105694  1096937  
  660.000000   1090721  1083490  1076418  1068592  1062468  
  655.000000   1054918  1048190  1040767  1034458  1027798  
  650.000000   1021708  1014485  1007422  1001508  993950   
  645.000000   988321   980562   974782   968490   961595   
  640.000000   955069   947921   940405   934282   927604   
  635.000000   920524   913142   905316   898831   891508   
  630.000000   883816   875201   867894   860789   852434   
  625.000000   844062   835262   827688   819718   810826   
  620.000000   801591   793303   784646   776282   766358   
  615.000000   757768   747484   737770   727611   718166   
  610.000000   708670   698352   687950   677741   667289   
  605.000000   657424   646242   636226   625958   614684   
  600.000000   603863   593998   583143   572137   562884   
  595.000000   550964   540394   530177   518811   507494   
  590.000000   496824   486129   474074   464100   453363   
  585.000000   442449   431259   421150   410262   399013   
  580.000000   388963   377840   368319   357573   347373   
  575.000000   336618   325956   316754   306671   296672   
  570.000000   286463   277261   267513   258353   247926   
  565.000000   239881   231736   222282   214052   206016   
  560.000000   198273   189365   181169   173888   166783   
  555.000000   159032   151675   145065   138421   131525   
  550.000000   124244   118464   111804   105797   100102   
  545.000000   94255    89054    83786    78409    74097    
  540.000000   68896    64450    59266    55147    52052    
  535.000000   47203    43873    40199    36877    33001    
  530.000000   29495    26651    23094    20594    17524    
  525.000000   14697    11887    9740     7491     4924     
  520.000000   3213     1108     -873     -2509    -4304    
  515.000000   -5822    -7542    -8775    -10377   -10604   
  510.000000   -12541   -14194   -14429   -15687   -16853   
  505.000000   -17667   -18178   -19537   -20670   -21442   
  500.000000   -22515   -23094   -24453   -25334   -26634   
  495.000000   -27909   -28798   -30048   -31240   -33345   
  490.000000   -33312   -34394   -36004   -37338   -37321   
  485.000000   -37925   -39158   -40492   -40811   -40928   
  480.000000   -42069   -41264   -40962   -40794   -40257   
  475.000000   -39519   -39385   -39066   -39444   -37917   
  470.000000   -37892   -38093   -37380   -37531   -36961   
  465.000000   -36952   -35685   -35090   -34872   -34125   
  460.000000   -33748   -33832   -33127   -32305   -32406   
  455.000000   -31659   -30602   -30904   -30233   -29360   
  450.000000   -29000   -28681   -27196   -27196   -26534   
  445.000000   -25468   -25024   -24470   -22482   -21995   
  440.000000   -21182   -20519   -19756   -19881   -17147   
  435.000000   -16526   -15922   -14504   -14487   -13489   
  430.000000   -12566   -11568   -9589    -9664    -8926    
  425.000000   -8037    -7458    -7139    -5377    -4681    
  420.000000   -3700    -3415    -1577    -1334    -512     
  415.000000   579      999      2056     2517     3029     
  410.000000   3893     4715     4832     5486     5503     
  405.000000   6787     8230     7936     9656     10545    
  400.000000   11510    12080    12315    13607    14437    
  395.000000   15259    16241    18153    18548    19420    
  390.000000   19789    20938    21727    23413    24269    
  385.000000   26089    27498    28119    29310    31391    
  380.000000   33236    27137    26081    30090    33202    
  375.000000   36432    38252    41784    44141    46171    
  370.000000   49502    54015    57093    60382    63796    
  365.000000   69466    73979    78509    83920    90169    
  360.000000   96385    102979   111879   120184   127222   
  355.000000   136869   147271   158939   169761   182159   
  350.000000   195480   
##END= 
