##TITLE= Ni(PPh3)2SCN2
##JCAMP-DX= 5.01
##DATA TYPE= INFRARED SPECTRUM
##DATA CLASS= XYDATA
##ORIGIN= Chemistry Department, UWI, JAMAICA
##OWNER= Public Domain
##LONGDATE= Mon Nov 19 2018 15:56:59 GMT-0500 $$ export date from JSpecView
##$ASDF FORM= DIFDUP
##$URL= http://wwwchem.uwimona.edu.jm/spectra
##SPECTROMETER/DATA SYSTEM= PERKIN-ELMER 1600 FT-IR
##INSTRUMENT PARAMETERS= Y: 4400.00,450.00 cm-1; 0.06,70.800 %T          95/11/30 12:00
16 scans; mode ratio; resol 4.00 cm-1; apod weak
##DATA PROCESSING= 
##XUNITS= 1/CM
##YUNITS= TRANSMITTANCE
##XFACTOR= 1
##YFACTOR= 1
##FIRSTX= 4400
##FIRSTY= 1.411000E-01
##LASTX= 450
##NPOINTS= 1976
##MINY= 6.000000E-04
##MAXY= 7.078000E-01
##XYDATA= (X++(Y..Y))
4400, 0.1411
4398, 0.1412
4396, 0.1415
4394, 0.1414
4392, 0.142
4390, 0.1421
4388, 0.1421
4386, 0.1423
4384, 0.1425
4382, 0.1426
4380, 0.1427
4378, 0.1424
4376, 0.1427
4374, 0.1433
4372, 0.1436
4370, 0.1435
4368, 0.1441
4366, 0.1439
4364, 0.1438
4362, 0.1439
4360, 0.1437
4358, 0.1444
4356, 0.145
4354, 0.1448
4352, 0.1448
4350, 0.1452
4348, 0.145
4346, 0.1452
4344, 0.1454
4342, 0.145
4340, 0.1447
4338, 0.1457
4336, 0.1463
4334, 0.1464
4332, 0.1453
4330, 0.1456
4328, 0.1462
4326, 0.1465
4324, 0.1463
4322, 0.1464
4320, 0.1467
4318, 0.1469
4316, 0.147
4314, 0.1476
4312, 0.1476
4310, 0.1481
4308, 0.1485
4306, 0.1487
4304, 0.1486
4302, 0.1485
4300, 0.1488
4298, 0.1489
4296, 0.149
4294, 0.1493
4292, 0.1494
4290, 0.1498
4288, 0.1498
4286, 0.1499
4284, 0.1503
4282, 0.1503
4280, 0.15
4278, 0.1503
4276, 0.1507
4274, 0.1508
4272, 0.1507
4270, 0.1506
4268, 0.1514
4266, 0.1508
4264, 0.151
4262, 0.1512
4260, 0.1514
4258, 0.1518
4256, 0.1518
4254, 0.152
4252, 0.1521
4250, 0.1521
4248, 0.1527
4246, 0.1528
4244, 0.1531
4242, 0.1536
4240, 0.1536
4238, 0.1533
4236, 0.1531
4234, 0.154
4232, 0.1542
4230, 0.1544
4228, 0.1546
4226, 0.1556
4224, 0.155
4222, 0.1548
4220, 0.1553
4218, 0.1555
4216, 0.1555
4214, 0.1561
4212, 0.1568
4210, 0.1569
4208, 0.1572
4206, 0.1579
4204, 0.1583
4202, 0.1583
4200, 0.1589
4198, 0.1594
4196, 0.1595
4194, 0.1597
4192, 0.1602
4190, 0.1605
4188, 0.1603
4186, 0.1604
4184, 0.1605
4182, 0.1607
4180, 0.1609
4178, 0.1609
4176, 0.1611
4174, 0.1614
4172, 0.1613
4170, 0.1613
4168, 0.1614
4166, 0.1611
4164, 0.1611
4162, 0.1603
4160, 0.1602
4158, 0.1597
4156, 0.1594
4154, 0.1591
4152, 0.1594
4150, 0.1596
4148, 0.1596
4146, 0.1601
4144, 0.1607
4142, 0.1609
4140, 0.1611
4138, 0.1617
4136, 0.1619
4134, 0.1621
4132, 0.1623
4130, 0.1625
4128, 0.1629
4126, 0.1632
4124, 0.1631
4122, 0.1635
4120, 0.1635
4118, 0.1637
4116, 0.1643
4114, 0.1644
4112, 0.1645
4110, 0.1648
4108, 0.1649
4106, 0.1651
4104, 0.1654
4102, 0.1656
4100, 0.1657
4098, 0.1656
4096, 0.1656
4094, 0.1659
4092, 0.1659
4090, 0.1661
4088, 0.166
4086, 0.1656
4084, 0.1655
4082, 0.1659
4080, 0.166
4078, 0.166
4076, 0.1663
4074, 0.1665
4072, 0.1662
4070, 0.1656
4068, 0.166
4066, 0.1654
4064, 0.165
4062, 0.1641
4060, 0.164
4058, 0.1636
4056, 0.1634
4054, 0.1637
4052, 0.164
4050, 0.1649
4048, 0.1651
4046, 0.1655
4044, 0.1658
4042, 0.1659
4040, 0.1662
4038, 0.1661
4036, 0.1663
4034, 0.1668
4032, 0.1673
4030, 0.1678
4028, 0.1683
4026, 0.1685
4024, 0.1687
4022, 0.1691
4020, 0.1692
4018, 0.1696
4016, 0.17
4014, 0.1704
4012, 0.171
4010, 0.171
4008, 0.1709
4006, 0.1718
4004, 0.1716
4002, 0.1717
4000, 0.1724
3998, 0.173
3996, 0.1726
3994, 0.1726
3992, 0.1728
3990, 0.1727
3988, 0.1732
3986, 0.173
3984, 0.1727
3982, 0.1729
3980, 0.1731
3978, 0.1738
3976, 0.174
3974, 0.174
3972, 0.1745
3970, 0.1746
3968, 0.1746
3966, 0.1748
3964, 0.175
3962, 0.1752
3960, 0.1755
3958, 0.1757
3956, 0.1758
3954, 0.1756
3952, 0.1758
3950, 0.1758
3948, 0.1758
3946, 0.1764
3944, 0.1764
3942, 0.1761
3940, 0.1769
3938, 0.177
3936, 0.177
3934, 0.1767
3932, 0.1765
3930, 0.1772
3928, 0.1781
3926, 0.1778
3924, 0.1777
3922, 0.1782
3920, 0.178
3918, 0.1778
3916, 0.1786
3914, 0.1802
3912, 0.1806
3910, 0.18
3908, 0.1793
3906, 0.1784
3904, 0.1765
3902, 0.1773
3900, 0.179
3898, 0.181
3896, 0.1829
3894, 0.1822
3892, 0.1803
3890, 0.181
3888, 0.1828
3886, 0.1807
3884, 0.181
3882, 0.183
3880, 0.1815
3878, 0.1837
3876, 0.184
3874, 0.1821
3872, 0.1818
3870, 0.1804
3868, 0.1829
3866, 0.1847
3864, 0.183
3862, 0.1837
3860, 0.1855
3858, 0.1852
3856, 0.1822
3854, 0.1765
3852, 0.1804
3850, 0.188
3848, 0.1898
3846, 0.188
3844, 0.1852
3842, 0.1844
3840, 0.1839
3838, 0.183
3836, 0.1856
3834, 0.1879
3832, 0.1872
3830, 0.1878
3828, 0.1883
3826, 0.1875
3824, 0.1879
3822, 0.185
3820, 0.1848
3818, 0.1882
3816, 0.1872
3814, 0.1889
3812, 0.1916
3810, 0.1908
3808, 0.1874
3806, 0.1868
3804, 0.1892
3802, 0.1869
3800, 0.1887
3798, 0.1921
3796, 0.1909
3794, 0.1921
3792, 0.1928
3790, 0.1929
3788, 0.1923
3786, 0.1916
3784, 0.1917
3782, 0.1926
3780, 0.1912
3778, 0.1916
3776, 0.1936
3774, 0.1933
3772, 0.1915
3770, 0.1897
3768, 0.1909
3766, 0.1919
3764, 0.1927
3762, 0.1931
3760, 0.1908
3758, 0.1908
3756, 0.1929
3754, 0.1913
3752, 0.1866
3750, 0.1864
3748, 0.1921
3746, 0.1915
3744, 0.1885
3742, 0.1952
3740, 0.1971
3738, 0.1942
3736, 0.1899
3734, 0.1912
3732, 0.1948
3730, 0.1972
3728, 0.1974
3726, 0.195
3724, 0.1948
3722, 0.1956
3720, 0.197
3718, 0.1976
3716, 0.1977
3714, 0.1955
3712, 0.1917
3710, 0.193
3708, 0.1973
3706, 0.1992
3704, 0.1975
3702, 0.1949
3700, 0.1958
3698, 0.1971
3696, 0.1968
3694, 0.1965
3692, 0.1937
3690, 0.1915
3688, 0.193
3686, 0.1982
3684, 0.1987
3682, 0.197
3680, 0.1949
3678, 0.1935
3676, 0.1885
3674, 0.191
3672, 0.1956
3670, 0.1923
3668, 0.194
3666, 0.1978
3664, 0.1972
3662, 0.1958
3660, 0.195
3658, 0.1932
3656, 0.191
3654, 0.1929
3652, 0.1913
3650, 0.1853
3648, 0.1857
3646, 0.1909
3644, 0.1927
3642, 0.191
3640, 0.1893
3638, 0.1882
3636, 0.1876
3634, 0.1858
3632, 0.1845
3630, 0.1806
3628, 0.1791
3626, 0.1841
3624, 0.1844
3622, 0.1816
3620, 0.1775
3618, 0.1766
3616, 0.1779
3614, 0.1765
3612, 0.1745
3610, 0.1738
3608, 0.1722
3606, 0.1726
3604, 0.1722
3602, 0.1696
3600, 0.1676
3598, 0.1662
3596, 0.1643
3594, 0.1627
3592, 0.162
3590, 0.1601
3588, 0.1565
3586, 0.1559
3584, 0.1564
3582, 0.1549
3580, 0.152
3578, 0.1496
3576, 0.1476
3574, 0.146
3572, 0.1442
3570, 0.1417
3568, 0.1382
3566, 0.1363
3564, 0.1366
3562, 0.1356
3560, 0.134
3558, 0.1324
3556, 0.1306
3554, 0.1296
3552, 0.1288
3550, 0.1291
3548, 0.1294
3546, 0.1301
3544, 0.1316
3542, 0.1335
3540, 0.135
3538, 0.1363
3536, 0.1373
3534, 0.1381
3532, 0.1386
3530, 0.1387
3528, 0.1384
3526, 0.1382
3524, 0.1382
3522, 0.1371
3520, 0.1365
3518, 0.1351
3516, 0.1339
3514, 0.1328
3512, 0.1313
3510, 0.1294
3508, 0.1278
3506, 0.1264
3504, 0.1245
3502, 0.1231
3500, 0.1218
3498, 0.1204
3496, 0.1185
3494, 0.1167
3492, 0.115
3490, 0.1133
3488, 0.1123
3486, 0.1115
3484, 0.1104
3482, 0.1094
3480, 0.1095
3478, 0.1094
3476, 0.1089
3474, 0.1089
3472, 0.1094
3470, 0.1101
3468, 0.1106
3466, 0.1109
3464, 0.1112
3462, 0.1114
3460, 0.1121
3458, 0.1127
3456, 0.1128
3454, 0.1136
3452, 0.114
3450, 0.1144
3448, 0.1148
3446, 0.1151
3444, 0.1156
3442, 0.1153
3440, 0.115
3438, 0.1145
3436, 0.1138
3434, 0.1126
3432, 0.1104
3430, 0.1085
3428, 0.1063
3426, 0.104
3424, 0.102
3422, 0.0999
3420, 0.0983
3418, 0.097
3416, 0.0963
3414, 0.096
3412, 0.0963
3410, 0.0971
3408, 0.0982
3406, 0.0997
3404, 0.1017
3402, 0.1043
3400, 0.107
3398, 0.1089
3396, 0.1112
3394, 0.1134
3392, 0.1158
3390, 0.1178
3388, 0.1193
3386, 0.1208
3384, 0.1226
3382, 0.1247
3380, 0.1266
3378, 0.1284
3376, 0.1301
3374, 0.1315
3372, 0.133
3370, 0.1356
3368, 0.1373
3366, 0.1392
3364, 0.1407
3362, 0.1424
3360, 0.1447
3358, 0.1464
3356, 0.1485
3354, 0.1508
3352, 0.1528
3350, 0.1551
3348, 0.1563
3346, 0.1582
3344, 0.1603
3342, 0.1623
3340, 0.164
3338, 0.166
3336, 0.1675
3334, 0.1683
3332, 0.1703
3330, 0.1721
3328, 0.1735
3326, 0.1753
3324, 0.177
3322, 0.1783
3320, 0.1794
3318, 0.1806
3316, 0.182
3314, 0.1833
3312, 0.1848
3310, 0.1862
3308, 0.1877
3306, 0.1889
3304, 0.1897
3302, 0.1905
3300, 0.1917
3298, 0.1922
3296, 0.1932
3294, 0.1941
3292, 0.1948
3290, 0.1953
3288, 0.1962
3286, 0.197
3284, 0.1976
3282, 0.1982
3280, 0.1991
3278, 0.1998
3276, 0.2006
3274, 0.2013
3272, 0.2021
3270, 0.2027
3268, 0.2029
3266, 0.2034
3264, 0.2034
3262, 0.2037
3260, 0.204
3258, 0.2042
3256, 0.2046
3254, 0.2048
3252, 0.2055
3250, 0.2058
3248, 0.2059
3246, 0.2055
3244, 0.2049
3242, 0.2042
3240, 0.2037
3238, 0.2036
3236, 0.2038
3234, 0.2047
3232, 0.2053
3230, 0.2064
3228, 0.2075
3226, 0.2092
3224, 0.2112
3222, 0.2134
3220, 0.2151
3218, 0.2165
3216, 0.2183
3214, 0.2199
3212, 0.2212
3210, 0.2224
3208, 0.2238
3206, 0.2248
3204, 0.2257
3202, 0.2266
3200, 0.2278
3198, 0.2283
3196, 0.2293
3194, 0.2302
3192, 0.2313
3190, 0.2321
3188, 0.2327
3186, 0.2334
3184, 0.2344
3182, 0.2352
3180, 0.2358
3178, 0.2362
3176, 0.2371
3174, 0.2376
3172, 0.2379
3170, 0.2386
3168, 0.2391
3166, 0.2396
3164, 0.2403
3162, 0.2412
3160, 0.242
3158, 0.2428
3156, 0.2437
3154, 0.2444
3152, 0.2453
3150, 0.2451
3148, 0.2451
3146, 0.2454
3144, 0.2455
3142, 0.2465
3140, 0.2478
3138, 0.2488
3136, 0.2495
3134, 0.2503
3132, 0.251
3130, 0.252
3128, 0.2525
3126, 0.2531
3124, 0.2537
3122, 0.2546
3120, 0.2553
3118, 0.2559
3116, 0.2563
3114, 0.2568
3112, 0.2572
3110, 0.2579
3108, 0.2589
3106, 0.2591
3104, 0.2597
3102, 0.2606
3100, 0.2614
3098, 0.2618
3096, 0.2619
3094, 0.2617
3092, 0.2618
3090, 0.2613
3088, 0.2612
3086, 0.261
3084, 0.2601
3082, 0.2582
3080, 0.2568
3078, 0.2549
3076, 0.249
3074, 0.236
3072, 0.2232
3070, 0.2194
3068, 0.2207
3066, 0.223
3064, 0.2221
3062, 0.2163
3060, 0.2156
3058, 0.2208
3056, 0.2257
3054, 0.2297
3052, 0.2344
3050, 0.2393
3048, 0.2441
3046, 0.2479
3044, 0.2479
3042, 0.2473
3040, 0.2495
3038, 0.2512
3036, 0.2521
3034, 0.253
3032, 0.2526
3030, 0.2531
3028, 0.2546
3026, 0.2558
3024, 0.2554
3022, 0.2525
3020, 0.2479
3018, 0.2463
3016, 0.2478
3014, 0.2485
3012, 0.248
3010, 0.2493
3008, 0.2519
3006, 0.2545
3004, 0.2552
3002, 0.2554
3000, 0.2578
2998, 0.2616
2996, 0.2645
2994, 0.2659
2992, 0.2656
2990, 0.2633
2988, 0.2606
2986, 0.2615
2984, 0.2652
2982, 0.269
2980, 0.2714
2978, 0.273
2976, 0.2741
2974, 0.2747
2972, 0.2749
2970, 0.2747
2968, 0.2737
2966, 0.272
2964, 0.2708
2962, 0.27
2960, 0.2703
2958, 0.271
2956, 0.2719
2954, 0.2728
2952, 0.2731
2950, 0.2726
2948, 0.2728
2946, 0.2734
2944, 0.2743
2942, 0.2752
2940, 0.2761
2938, 0.277
2936, 0.2777
2934, 0.2788
2932, 0.2799
2930, 0.2808
2928, 0.2814
2926, 0.2824
2924, 0.2834
2922, 0.2842
2920, 0.2855
2918, 0.2866
2916, 0.2875
2914, 0.2883
2912, 0.2888
2910, 0.289
2908, 0.2896
2906, 0.2904
2904, 0.2912
2902, 0.2919
2900, 0.2927
2898, 0.2934
2896, 0.294
2894, 0.2943
2892, 0.2949
2890, 0.2956
2888, 0.2962
2886, 0.2967
2884, 0.2971
2882, 0.2978
2880, 0.2986
2878, 0.2993
2876, 0.2997
2874, 0.2998
2872, 0.3005
2870, 0.301
2868, 0.3011
2866, 0.3011
2864, 0.3017
2862, 0.3025
2860, 0.3031
2858, 0.3034
2856, 0.3039
2854, 0.3043
2852, 0.3049
2850, 0.3055
2848, 0.3058
2846, 0.3064
2844, 0.3073
2842, 0.3081
2840, 0.3085
2838, 0.3089
2836, 0.3094
2834, 0.3098
2832, 0.3105
2830, 0.3113
2828, 0.3114
2826, 0.3119
2824, 0.3124
2822, 0.3129
2820, 0.3134
2818, 0.3139
2816, 0.3144
2814, 0.3147
2812, 0.3152
2810, 0.3158
2808, 0.3158
2806, 0.3166
2804, 0.3172
2802, 0.3176
2800, 0.318
2798, 0.3185
2796, 0.319
2794, 0.3193
2792, 0.3195
2790, 0.3202
2788, 0.3205
2786, 0.3208
2784, 0.3216
2782, 0.3219
2780, 0.3219
2778, 0.3226
2776, 0.3232
2774, 0.3233
2772, 0.3236
2770, 0.3242
2768, 0.3248
2766, 0.3253
2764, 0.3255
2762, 0.3257
2760, 0.3264
2758, 0.3268
2756, 0.3273
2754, 0.3277
2752, 0.328
2750, 0.3286
2748, 0.3291
2746, 0.3293
2744, 0.3296
2742, 0.3302
2740, 0.3309
2738, 0.3315
2736, 0.3318
2734, 0.332
2732, 0.3323
2730, 0.3327
2728, 0.3329
2726, 0.3333
2724, 0.3338
2722, 0.3344
2720, 0.3347
2718, 0.335
2716, 0.3351
2714, 0.3356
2712, 0.3361
2710, 0.3367
2708, 0.3368
2706, 0.3371
2704, 0.3373
2702, 0.3375
2700, 0.338
2698, 0.3383
2696, 0.3389
2694, 0.3396
2692, 0.3396
2690, 0.3399
2688, 0.3401
2686, 0.3397
2684, 0.3382
2682, 0.336
2680, 0.334
2678, 0.3333
2676, 0.3335
2674, 0.3344
2672, 0.3364
2670, 0.3385
2668, 0.3399
2666, 0.341
2664, 0.3422
2662, 0.3433
2660, 0.3441
2658, 0.3447
2656, 0.3457
2654, 0.3466
2652, 0.3475
2650, 0.3477
2648, 0.3484
2646, 0.3487
2644, 0.349
2642, 0.3493
2640, 0.3494
2638, 0.3503
2636, 0.3511
2634, 0.3516
2632, 0.3519
2630, 0.3525
2628, 0.3533
2626, 0.3536
2624, 0.3538
2622, 0.3538
2620, 0.3542
2618, 0.3544
2616, 0.3542
2614, 0.3542
2612, 0.3542
2610, 0.3548
2608, 0.355
2606, 0.3551
2604, 0.3556
2602, 0.3564
2600, 0.3575
2598, 0.3581
2596, 0.3586
2594, 0.359
2592, 0.3594
2590, 0.3596
2588, 0.3602
2586, 0.3604
2584, 0.3602
2582, 0.3592
2580, 0.3582
2578, 0.3578
2576, 0.3578
2574, 0.3587
2572, 0.3598
2570, 0.3608
2568, 0.3617
2566, 0.3623
2564, 0.3632
2562, 0.3644
2560, 0.3652
2558, 0.366
2556, 0.3663
2554, 0.3664
2552, 0.3668
2550, 0.3671
2548, 0.3673
2546, 0.3673
2544, 0.3674
2542, 0.3681
2540, 0.3689
2538, 0.3694
2536, 0.3701
2534, 0.371
2532, 0.3717
2530, 0.3726
2528, 0.3733
2526, 0.3737
2524, 0.3744
2522, 0.3749
2520, 0.3751
2518, 0.3747
2516, 0.3741
2514, 0.3733
2512, 0.3723
2510, 0.3714
2508, 0.3709
2506, 0.371
2504, 0.3717
2502, 0.3729
2500, 0.3743
2498, 0.376
2496, 0.3773
2494, 0.3786
2492, 0.3801
2490, 0.3813
2488, 0.3822
2486, 0.383
2484, 0.384
2482, 0.3851
2480, 0.3857
2478, 0.3862
2476, 0.3868
2474, 0.3876
2472, 0.3882
2470, 0.3887
2468, 0.3892
2466, 0.3899
2464, 0.3908
2462, 0.3914
2460, 0.3916
2458, 0.3919
2456, 0.3927
2454, 0.3933
2452, 0.3938
2450, 0.3943
2448, 0.395
2446, 0.3958
2444, 0.3965
2442, 0.397
2440, 0.3976
2438, 0.3978
2436, 0.3985
2434, 0.3988
2432, 0.3993
2430, 0.3995
2428, 0.4
2426, 0.401
2424, 0.4022
2422, 0.4028
2420, 0.4035
2418, 0.4042
2416, 0.405
2414, 0.4056
2412, 0.4059
2410, 0.4062
2408, 0.4066
2406, 0.407
2404, 0.4073
2402, 0.4078
2400, 0.4085
2398, 0.4094
2396, 0.4104
2394, 0.4114
2392, 0.4122
2390, 0.4127
2388, 0.4138
2386, 0.4149
2384, 0.4155
2382, 0.4163
2380, 0.4173
2378, 0.4189
2376, 0.4208
2374, 0.4225
2372, 0.4238
2370, 0.4256
2368, 0.4265
2366, 0.4268
2364, 0.4271
2362, 0.4267
2360, 0.4259
2358, 0.4239
2356, 0.4216
2354, 0.4198
2352, 0.4181
2350, 0.4162
2348, 0.414
2346, 0.4143
2344, 0.4186
2342, 0.4227
2340, 0.4256
2338, 0.4281
2336, 0.4303
2334, 0.4312
2332, 0.4324
2330, 0.4325
2328, 0.4326
2326, 0.4337
2324, 0.4347
2322, 0.436
2320, 0.4372
2318, 0.4373
2316, 0.4381
2314, 0.4387
2312, 0.4392
2310, 0.4395
2308, 0.4395
2306, 0.4395
2304, 0.4396
2302, 0.4397
2300, 0.4397
2298, 0.4398
2296, 0.44
2294, 0.4403
2292, 0.4408
2290, 0.4415
2288, 0.4425
2286, 0.4442
2284, 0.4456
2282, 0.4467
2280, 0.448
2278, 0.4496
2276, 0.451
2274, 0.4522
2272, 0.4531
2270, 0.4546
2268, 0.4559
2266, 0.4574
2264, 0.4585
2262, 0.4597
2260, 0.461
2258, 0.462
2256, 0.4631
2254, 0.4646
2252, 0.4662
2250, 0.4674
2248, 0.4686
2246, 0.47
2244, 0.4715
2242, 0.4729
2240, 0.4739
2238, 0.4749
2236, 0.4762
2234, 0.4774
2232, 0.4788
2230, 0.4802
2228, 0.4814
2226, 0.4828
2224, 0.4845
2222, 0.486
2220, 0.4874
2218, 0.4885
2216, 0.4896
2214, 0.4904
2212, 0.4914
2210, 0.492
2208, 0.4929
2206, 0.4944
2204, 0.4962
2202, 0.4972
2200, 0.497
2198, 0.4968
2196, 0.498
2194, 0.4997
2192, 0.5011
2190, 0.502
2188, 0.5034
2186, 0.5063
2184, 0.5102
2182, 0.5142
2180, 0.518
2178, 0.5222
2176, 0.5254
2174, 0.5277
2172, 0.5294
2170, 0.5314
2168, 0.5329
2166, 0.5345
2164, 0.5358
2162, 0.5374
2160, 0.5387
2158, 0.5403
2156, 0.5414
2154, 0.5419
2152, 0.5422
2150, 0.5427
2148, 0.5428
2146, 0.5424
2144, 0.5422
2142, 0.5425
2140, 0.5421
2138, 0.5406
2136, 0.539
2134, 0.5377
2132, 0.5361
2130, 0.5318
2128, 0.5273
2126, 0.5265
2124, 0.5256
2122, 0.5219
2120, 0.5154
2118, 0.506
2116, 0.4935
2114, 0.4766
2112, 0.4542
2110, 0.4249
2108, 0.3886
2106, 0.3448
2104, 0.2933
2102, 0.2351
2100, 0.1734
2098, 0.1135
2096, 0.0631
2094, 0.0288
2092, 0.0109
2090, 0.0036
2088, 0.0013
2086, 0.0006
2084, 0.0006
2082, 0.0007
2080, 0.0012
2078, 0.0019
2076, 0.0034
2074, 0.0061
2072, 0.0109
2070, 0.0177
2068, 0.0268
2066, 0.0384
2064, 0.0524
2062, 0.0671
2060, 0.0813
2058, 0.0965
2056, 0.1131
2054, 0.1293
2052, 0.144
2050, 0.1575
2048, 0.1684
2046, 0.1741
2044, 0.1712
2042, 0.1698
2040, 0.1783
2038, 0.1907
2036, 0.2023
2034, 0.2127
2032, 0.2221
2030, 0.2307
2028, 0.2388
2026, 0.2467
2024, 0.2539
2022, 0.2606
2020, 0.267
2018, 0.2733
2016, 0.2798
2014, 0.2859
2012, 0.2911
2010, 0.2962
2008, 0.3012
2006, 0.3058
2004, 0.3097
2002, 0.3122
2000, 0.3135
1998, 0.3138
1996, 0.3145
1994, 0.3161
1992, 0.319
1990, 0.37
1988, 0.3748
1986, 0.3794
1984, 0.383
1982, 0.3857
1980, 0.3869
1978, 0.3868
1976, 0.3848
1974, 0.3815
1972, 0.3797
1970, 0.38
1968, 0.3834
1966, 0.3895
1964, 0.3962
1962, 0.3543
1960, 0.3602
1958, 0.3654
1956, 0.3695
1954, 0.3726
1952, 0.3755
1950, 0.3777
1948, 0.3801
1946, 0.382
1944, 0.384
1942, 0.3861
1940, 0.391
1938, 0.3923
1936, 0.3937
1934, 0.3949
1932, 0.3959
1930, 0.3962
1928, 0.3959
1926, 0.3952
1924, 0.3934
1922, 0.3945
1920, 0.3957
1918, 0.3941
1916, 0.3977
1914, 0.3997
1912, 0.4011
1910, 0.4025
1908, 0.4039
1906, 0.4034
1904, 0.401
1902, 0.3978
1900, 0.3946
1898, 0.3919
1896, 0.3904
1894, 0.3907
1892, 0.3938
1890, 0.3957
1888, 0.4041
1886, 0.4097
1884, 0.4131
1882, 0.4171
1880, 0.4197
1878, 0.4221
1876, 0.4242
1874, 0.4262
1872, 0.4269
1870, 0.4239
1868, 0.4264
1866, 0.4325
1864, 0.4339
1862, 0.4339
1860, 0.4342
1858, 0.4344
1856, 0.4353
1854, 0.4353
1852, 0.4354
1850, 0.4342
1848, 0.4339
1846, 0.4315
1844, 0.429
1842, 0.438
1840, 0.4376
1838, 0.437
1836, 0.4385
1834, 0.4394
1832, 0.4377
1830, 0.4334
1828, 0.4381
1826, 0.4355
1824, 0.4318
1822, 0.4315
1820, 0.4256
1818, 0.4222
1816, 0.4212
1814, 0.4237
1812, 0.4259
1810, 0.4305
1808, 0.4358
1806, 0.438
1804, 0.4392
1802, 0.4388
1800, 0.4422
1798, 0.447
1796, 0.45
1794, 0.4475
1792, 0.4468
1790, 0.456
1788, 0.4562
1786, 0.4516
1784, 0.451
1782, 0.4506
1780, 0.447
1778, 0.4489
1776, 0.4457
1774, 0.4421
1772, 0.4398
1770, 0.4503
1768, 0.4495
1766, 0.4543
1764, 0.4556
1762, 0.4543
1760, 0.4639
1758, 0.464
1756, 0.4659
1754, 0.4707
1752, 0.4642
1750, 0.4666
1748, 0.4707
1746, 0.4742
1744, 0.4721
1742, 0.474
1740, 0.4694
1738, 0.4782
1736, 0.4723
1734, 0.4613
1732, 0.4813
1730, 0.477
1728, 0.4771
1726, 0.4746
1724, 0.4679
1722, 0.4642
1720, 0.4582
1718, 0.4499
1716, 0.4639
1714, 0.4716
1712, 0.4748
1710, 0.4744
1708, 0.4732
1706, 0.4694
1704, 0.4767
1702, 0.4691
1700, 0.4625
1698, 0.4792
1696, 0.4692
1694, 0.4818
1692, 0.481
1690, 0.4744
1688, 0.4749
1686, 0.4657
1684, 0.4518
1682, 0.4748
1680, 0.4664
1678, 0.4666
1676, 0.4528
1674, 0.4585
1672, 0.4582
1670, 0.4498
1668, 0.4595
1666, 0.4647
1664, 0.4581
1662, 0.4587
1660, 0.4647
1658, 0.4617
1656, 0.4537
1654, 0.4312
1652, 0.4465
1650, 0.455
1648, 0.4343
1646, 0.4266
1644, 0.4257
1642, 0.4071
1640, 0.387
1638, 0.3744
1636, 0.3682
1634, 0.3986
1632, 0.4136
1630, 0.4182
1628, 0.4161
1626, 0.4155
1624, 0.3979
1622, 0.38
1620, 0.36
1618, 0.3333
1616, 0.3298
1614, 0.3509
1612, 0.3709
1610, 0.3925
1608, 0.4103
1606, 0.4243
1604, 0.4335
1602, 0.4408
1600, 0.4466
1598, 0.4519
1596, 0.4573
1594, 0.4634
1592, 0.4697
1590, 0.4731
1588, 0.4729
1586, 0.4621
1584, 0.4536
1582, 0.463
1580, 0.4838
1578, 0.4869
1576, 0.483
1574, 0.4839
1572, 0.4604
1570, 0.4593
1568, 0.4944
1566, 0.5022
1564, 0.5049
1562, 0.5069
1560, 0.4842
1558, 0.5006
1556, 0.5208
1554, 0.5153
1552, 0.5197
1550, 0.5158
1548, 0.5202
1546, 0.517
1544, 0.5124
1542, 0.5083
1540, 0.5029
1538, 0.5292
1536, 0.5335
1534, 0.5222
1532, 0.5349
1530, 0.5378
1528, 0.5347
1526, 0.5336
1524, 0.539
1522, 0.5256
1520, 0.5447
1518, 0.5436
1516, 0.5455
1514, 0.5535
1512, 0.5491
1510, 0.5499
1508, 0.5353
1506, 0.5411
1504, 0.5645
1502, 0.5601
1500, 0.5558
1498, 0.5539
1496, 0.559
1494, 0.5692
1492, 0.5645
1490, 0.5605
1488, 0.5616
1486, 0.5528
1484, 0.5042
1482, 0.3788
1480, 0.2487
1478, 0.2291
1476, 0.3484
1474, 0.4262
1472, 0.4776
1470, 0.5159
1468, 0.5327
1466, 0.5325
1464, 0.5473
1462, 0.5567
1460, 0.5558
1458, 0.5437
1456, 0.5635
1454, 0.5768
1452, 0.5766
1450, 0.5785
1448, 0.587
1446, 0.6027
1444, 0.6103
1442, 0.569
1440, 0.3777
1438, 0.1517
1436, 0.0482
1434, 0.0269
1432, 0.0636
1430, 0.1616
1428, 0.2481
1426, 0.3061
1424, 0.361
1422, 0.3988
1420, 0.4121
1418, 0.4352
1416, 0.4533
1414, 0.462
1412, 0.4702
1410, 0.4752
1408, 0.4792
1406, 0.4771
1404, 0.4767
1402, 0.4758
1400, 0.4665
1398, 0.4627
1396, 0.4586
1394, 0.457
1392, 0.4631
1390, 0.4605
1388, 0.4577
1386, 0.4562
1384, 0.4602
1382, 0.462
1380, 0.4818
1378, 0.4922
1376, 0.4959
1374, 0.4999
1372, 0.5079
1370, 0.5281
1368, 0.532
1366, 0.5362
1364, 0.5346
1362, 0.538
1360, 0.5432
1358, 0.545
1356, 0.545
1354, 0.5473
1352, 0.5502
1350, 0.5531
1348, 0.5559
1346, 0.5584
1344, 0.5602
1342, 0.5596
1340, 0.5552
1338, 0.5511
1336, 0.5394
1334, 0.5239
1332, 0.5161
1330, 0.5182
1328, 0.5242
1326, 0.5299
1324, 0.5342
1322, 0.5368
1320, 0.5356
1318, 0.5284
1316, 0.5135
1314, 0.4921
1312, 0.4683
1310, 0.4455
1308, 0.4372
1306, 0.4534
1304, 0.4776
1302, 0.497
1300, 0.5107
1298, 0.5199
1296, 0.5267
1294, 0.532
1292, 0.536
1290, 0.5367
1288, 0.5345
1286, 0.528
1284, 0.5227
1282, 0.5239
1280, 0.5319
1278, 0.5399
1276, 0.5425
1274, 0.5408
1272, 0.5405
1270, 0.5441
1268, 0.5469
1266, 0.5494
1264, 0.5543
1262, 0.5605
1260, 0.5653
1258, 0.5694
1256, 0.5718
1254, 0.5748
1252, 0.5775
1250, 0.58
1248, 0.581
1246, 0.5827
1244, 0.5836
1242, 0.5857
1240, 0.5874
1238, 0.588
1236, 0.5883
1234, 0.5899
1232, 0.5914
1230, 0.5924
1228, 0.5927
1226, 0.5926
1224, 0.5935
1222, 0.5947
1220, 0.5945
1218, 0.5937
1216, 0.5939
1214, 0.5953
1212, 0.5965
1210, 0.5974
1208, 0.5974
1206, 0.5966
1204, 0.5965
1202, 0.5958
1200, 0.5945
1198, 0.5912
1196, 0.5859
1194, 0.5758
1192, 0.5615
1190, 0.5396
1188, 0.5057
1186, 0.4552
1184, 0.4294
1182, 0.4274
1180, 0.4001
1178, 0.3708
1176, 0.4303
1174, 0.4992
1172, 0.5307
1170, 0.5487
1168, 0.5579
1166, 0.5537
1164, 0.5255
1162, 0.5148
1160, 0.5225
1158, 0.5192
1156, 0.5362
1154, 0.5584
1152, 0.5694
1150, 0.5732
1148, 0.5752
1146, 0.5758
1144, 0.5776
1142, 0.5781
1140, 0.5789
1138, 0.5804
1136, 0.5834
1134, 0.5851
1132, 0.5866
1130, 0.5865
1128, 0.5861
1126, 0.5818
1124, 0.5741
1122, 0.5659
1120, 0.567
1118, 0.5727
1116, 0.5791
1114, 0.5828
1112, 0.5827
1110, 0.5756
1108, 0.5593
1106, 0.5209
1104, 0.4234
1102, 0.262
1100, 0.161
1098, 0.1364
1096, 0.1116
1094, 0.1284
1092, 0.2281
1090, 0.3445
1088, 0.4226
1086, 0.4706
1084, 0.5
1082, 0.5203
1080, 0.5295
1078, 0.5226
1076, 0.5021
1074, 0.4959
1072, 0.4841
1070, 0.4806
1068, 0.5065
1066, 0.5347
1064, 0.5558
1062, 0.5708
1060, 0.5809
1058, 0.5871
1056, 0.5908
1054, 0.5943
1052, 0.5992
1050, 0.6035
1048, 0.6062
1046, 0.6084
1044, 0.612
1042, 0.6137
1040, 0.6165
1038, 0.6154
1036, 0.6081
1034, 0.5637
1032, 0.5454
1030, 0.5667
1028, 0.5554
1026, 0.509
1024, 0.5007
1022, 0.559
1020, 0.5891
1018, 0.6022
1016, 0.6077
1014, 0.614
1012, 0.6186
1010, 0.623
1008, 0.6231
1006, 0.6057
1004, 0.5555
1002, 0.4922
1000, 0.3969
998, 0.3324
996, 0.4091
994, 0.5168
992, 0.5652
990, 0.5873
988, 0.5955
986, 0.5979
984, 0.6091
982, 0.6167
980, 0.62
978, 0.6151
976, 0.6081
974, 0.6134
972, 0.6211
970, 0.627
968, 0.6325
966, 0.6371
964, 0.6392
962, 0.6403
960, 0.6418
958, 0.6419
956, 0.6387
954, 0.6328
952, 0.6258
950, 0.6165
948, 0.6085
946, 0.6099
944, 0.6204
942, 0.6297
940, 0.6347
938, 0.6347
936, 0.6307
934, 0.6262
932, 0.6225
930, 0.6249
928, 0.6347
926, 0.6422
924, 0.6445
922, 0.6467
920, 0.65
918, 0.6561
916, 0.6604
914, 0.6637
912, 0.6694
910, 0.6716
908, 0.6723
906, 0.6746
904, 0.6769
902, 0.6796
900, 0.6807
898, 0.6815
896, 0.6833
894, 0.6868
892, 0.6895
890, 0.6903
888, 0.6905
886, 0.6916
884, 0.6931
882, 0.691
880, 0.6865
878, 0.6761
876, 0.6625
874, 0.6325
872, 0.5582
870, 0.3687
868, 0.2182
866, 0.2887
864, 0.4162
862, 0.5037
860, 0.5519
858, 0.5829
856, 0.6006
854, 0.606
852, 0.6141
850, 0.6264
848, 0.6152
846, 0.5987
844, 0.6156
842, 0.6422
840, 0.6561
838, 0.666
836, 0.6723
834, 0.6761
832, 0.6785
830, 0.6807
828, 0.684
826, 0.6854
824, 0.6875
822, 0.6892
820, 0.6921
818, 0.6938
816, 0.6944
814, 0.6945
812, 0.6979
810, 0.6991
808, 0.7007
806, 0.6994
804, 0.6992
802, 0.7007
800, 0.703
798, 0.7028
796, 0.7024
794, 0.7031
792, 0.7054
790, 0.7076
788, 0.7078
786, 0.7058
784, 0.7059
782, 0.7069
780, 0.7058
778, 0.7037
776, 0.7029
774, 0.7046
772, 0.7057
770, 0.705
768, 0.7014
766, 0.6999
764, 0.696
762, 0.6907
760, 0.6745
758, 0.6393
756, 0.5649
754, 0.3982
752, 0.1975
750, 0.1566
748, 0.208
746, 0.2413
744, 0.1719
742, 0.2587
740, 0.4247
738, 0.5218
736, 0.5849
734, 0.6208
732, 0.6391
730, 0.6449
728, 0.646
726, 0.6446
724, 0.6428
722, 0.6375
720, 0.6216
718, 0.5739
716, 0.4751
714, 0.3804
712, 0.32
710, 0.2373
708, 0.1428
706, 0.1868
704, 0.2759
702, 0.2711
700, 0.1961
698, 0.1759
696, 0.118
694, 0.0694
692, 0.063
690, 0.1126
688, 0.1868
686, 0.2669
684, 0.3584
682, 0.4212
680, 0.4552
678, 0.4722
676, 0.4868
674, 0.5034
672, 0.5211
670, 0.5386
668, 0.5617
666, 0.5656
664, 0.5681
662, 0.5762
660, 0.5824
658, 0.5844
656, 0.5852
654, 0.5863
652, 0.5854
650, 0.5843
648, 0.5818
646, 0.5771
644, 0.5765
642, 0.5748
640, 0.5707
638, 0.5656
636, 0.5618
634, 0.5597
632, 0.5581
630, 0.5564
628, 0.5535
626, 0.5505
624, 0.5485
622, 0.5448
620, 0.537
618, 0.5275
616, 0.5323
614, 0.5504
612, 0.5584
610, 0.5638
608, 0.5665
606, 0.5697
604, 0.5719
602, 0.5764
600, 0.5801
598, 0.5867
596, 0.5908
594, 0.5935
592, 0.5956
590, 0.6002
588, 0.6066
586, 0.6122
584, 0.6202
582, 0.6232
580, 0.6297
578, 0.6331
576, 0.6351
574, 0.6406
572, 0.6479
570, 0.65
568, 0.6543
566, 0.6603
564, 0.6641
562, 0.6678
560, 0.67
558, 0.6708
556, 0.671
554, 0.6688
552, 0.6676
550, 0.6586
548, 0.6432
546, 0.6296
544, 0.6193
542, 0.619
540, 0.6142
538, 0.6105
536, 0.5983
534, 0.5798
532, 0.5339
530, 0.4377
528, 0.2718
526, 0.1035
524, 0.0414
522, 0.0673
520, 0.1497
518, 0.223
516, 0.1903
514, 0.0962
512, 0.0596
510, 0.1249
508, 0.2329
506, 0.3157
504, 0.3496
502, 0.3267
500, 0.2209
498, 0.1131
496, 0.1432
494, 0.2537
492, 0.3356
490, 0.3844
488, 0.4145
486, 0.4352
484, 0.4529
482, 0.469
480, 0.478
478, 0.4818
476, 0.4893
474, 0.4926
472, 0.497
470, 0.5047
468, 0.5042
466, 0.4992
464, 0.4949
462, 0.4836
460, 0.4308
458, 0.3985
456, 0.438
454, 0.4753
452, 0.4985
450, 0.5124
##END=